1473868273425	0	0	0	0	0	0	0	0
0	1	-1	1	-1	0	-1	0	1473868273433
0	-1	0	1	2	-2	0	0	1473868273438
1	-1	-1	-2	-4	0	1	-1	1473868273439
-1	1	1	-10	-2	-3	-2	0	1473868273444
-1	0	-1	-1	-1	-1	-3	-1	1473868273439
-1	-1	-2	-1	-1	-3	-2	-2	1473868273444
1	-2	0	-4	-2	-2	0	-1	1473868273439
-1	1	1	2	0	-3	-1	-1	1473868273444
0	-1	-1	-1	-3	-4	-2	0	1473868273482
-1	-2	-1	-1	-2	1	0	-2	1473868273487
-1	-1	-2	-2	-3	0	-1	-1	1473868273485
-1	-1	-1	0	-1	-5	-1	-1	1473868273490
0	1	-2	-3	1	2	0	-1	1473868273489
-1	-3	-2	0	-2	-4	-2	-2	1473868273494
-1	-1	-1	-1	0	-2	-1	-2	1473868273529
-3	-2	-1	-1	0	2	-1	-1	1473868273534
-1	0	-2	-2	0	2	0	0	1473868273532
0	0	-2	-1	-1	0	-1	0	1473868273537
0	1	0	1	-1	-7	-2	-1	1473868273576
0	0	-1	1	-3	1	-2	-2	1473868273581
-1	1	0	-1	0	1	1	-1	1473868273577
-1	-1	-1	1	0	-5	-2	-1	1473868273582
-2	-2	1	0	-2	-1	-1	-2	1473868273578
0	-1	1	-1	-1	-2	0	-1	1473868273583
-2	-3	-1	-3	-2	2	0	-1	1473868273627
-2	-2	-2	-2	-5	-3	-1	-1	1473868273632
0	-2	-2	-3	-7	-6	-2	0	1473868273627
-1	-1	-1	-3	-3	-3	-1	-1	1473868273632
0	0	-1	-2	-4	-5	-2	-2	1473868273627
-1	0	-2	1	-1	-7	-1	-1	1473868273632
-2	-1	-1	0	2	4	-1	0	1473868273631
-2	-1	-1	-2	4	5	-1	0	1473868273636
-2	-1	0	-10	-6	0	-1	0	1473868273674
0	-1	0	3	2	1	-2	-1	1473868273679
0	-2	0	-2	-4	-1	-1	0	1473868273674
-2	0	-1	-1	-3	-3	-3	-1	1473868273679
-1	-2	-2	-1	-3	-5	-1	1	1473868273719
-2	-2	-1	-3	-1	4	0	-2	1473868273724
-1	0	0	0	0	3	-2	-3	1473868273719
0	-1	0	1	0	2	1	-1	1473868273724
0	0	0	2	2	-3	-3	-1	1473868273721
0	-2	-3	-6	-6	-2	0	0	1473868273726
-1	0	-2	-2	-4	-3	-2	-2	1473868273721
-2	-3	-1	-1	1	-3	-2	-1	1473868273726
0	-2	1	-5	-3	0	1	0	1473868273767
-1	-1	0	-3	-2	-2	-1	0	1473868273772
-1	-1	-1	2	3	-1	-1	-1	1473868273768
-1	0	-1	-1	1	2	-2	-2	1473868273773
1	0	-1	-1	-1	0	-1	-2	1473868273770
-1	0	0	0	2	1	-1	-1	1473868273775
-1	0	0	2	-2	2	0	0	1473868273815
-1	-1	0	2	1	-2	-2	0	1473868273820
-2	-2	0	-7	-1	-2	-1	0	1473868273815
0	-1	-1	3	2	-1	-1	-2	1473868273820
-1	0	-1	1	3	2	0	1	1473868273861
-3	-2	0	0	-3	0	0	-3	1473868273866
-1	0	-1	-2	-2	0	-2	-2	1473868273861
-1	-2	-1	-5	-8	-5	-3	-2	1473868273866
-1	0	-1	-3	-2	-5	-1	-2	1473868273863
0	0	1	1	3	1	0	0	1473868273868
0	-1	1	2	3	6	1	-2	1473868273864
-1	1	-1	1	2	3	1	0	1473868273869
-1	-1	0	0	-1	1	2	1	1473868273910
-2	0	0	-3	-3	-2	-2	-1	1473868273915
-2	-1	0	-1	-3	-1	0	-1	1473868273910
-1	-2	-2	0	3	0	2	0	1473868273915
-2	-1	-2	1	2	3	-1	0	1473868273956
1	-2	-1	1	1	1	1	-2	1473868273961
0	-1	-2	-5	-3	-6	-3	-2	1473868273958
-2	1	-1	3	3	0	0	0	1473868273963
0	-2	-1	5	5	8	2	-1	1473868273959
0	-3	-1	0	-2	-3	-1	0	1473868273964
-1	-3	-1	-4	-5	0	-3	-3	1473868274011
-2	-2	-2	-5	-6	-5	-2	-1	1473868274016
-1	0	-2	1	1	-4	0	2	1473868274011
-1	-1	0	2	3	7	0	-1	1473868274016
-2	-1	0	-1	-3	-5	-2	-3	1473868274011
-1	-2	0	-1	2	1	1	0	1473868274016
-1	-1	0	-3	-6	-1	-2	-2	1473868274011
-1	1	-1	-3	0	-4	0	0	1473868274016
-1	-2	-4	-2	-3	0	-2	-1	1473868274053
0	0	0	-7	-1	-3	-1	-2	1473868274058
0	0	0	3	4	0	0	-1	1473868274055
1	-2	-2	0	1	2	-1	-1	1473868274060
-1	-1	-1	0	-3	-1	-1	-1	1473868274099
0	-1	0	1	-3	-2	-3	0	1473868274104
-1	-1	-1	-2	-4	-3	-2	-2	1473868274099
-1	-2	0	-2	-4	-3	-3	-1	1473868274104
-1	0	1	-4	0	-1	-2	-1	1473868274101
-2	1	-2	4	1	-1	0	0	1473868274106
-1	-1	-1	2	3	2	0	2	1473868274102
-1	-2	-2	-3	-1	2	1	0	1473868274107
-1	-2	1	-3	-5	-4	-2	-2	1473868274147
0	-1	1	1	-2	3	-1	-1	1473868274152
0	0	-2	0	2	0	2	0	1473868274149
0	0	-1	0	2	3	1	0	1473868274154
-1	-1	-3	-2	-1	-2	-1	-1	1473868274151
-1	-3	-1	-5	-3	-5	-3	0	1473868274156
-1	1	-1	0	0	-2	-2	0	1473868274195
-1	-1	-1	0	0	-2	1	0	1473868274200
0	1	1	0	3	6	1	1	1473868274195
-2	0	-1	-3	-2	-5	0	-2	1473868274200
-3	0	-3	0	-2	-3	-1	-3	1473868274242
0	-1	0	-3	0	-1	-1	0	1473868274247
-2	-1	-1	-2	-3	-4	-3	-1	1473868274243
0	-1	-2	1	-1	-2	-3	1	1473868274248
0	-2	-2	-4	-3	-1	-2	-2	1473868274244
-2	-1	-1	-2	-3	-1	-1	0	1473868274249
0	-2	-2	-2	-1	-1	-2	0	1473868274246
0	0	0	0	0	1	-2	0	1473868274251
0	1	-1	-7	-3	-1	0	-1	1473868274290
-2	1	0	1	2	-3	-2	-2	1473868274295
0	0	-1	0	1	-2	0	1	1473868274293
0	0	0	2	0	-6	-3	-1	1473868274298
-2	-1	1	-3	-2	0	-3	-3	1473868274294
-2	-1	-1	-2	3	6	1	0	1473868274299
0	0	-2	0	1	2	-1	-1	1473868274338
-1	-1	-1	-5	-5	-3	-3	-3	1473868274343
1	0	1	0	0	-4	-1	-1	1473868274341
-1	-1	0	3	1	-1	-2	0	1473868274346
-1	-2	-1	-1	-1	-1	-1	0	1473868274387
-1	0	1	-7	-1	4	-1	2	1473868274392
-1	-1	-1	0	-2	9	-1	0	1473868274387
-1	-1	0	-1	0	-3	0	-1	1473868274392
-3	0	0	-1	0	1	0	0	1473868274389
-2	-2	0	-3	-2	-2	-2	-2	1473868274394
-2	2	-1	-2	-3	-4	-3	1	1473868274432
-1	-1	0	-1	-3	-3	-4	0	1473868274437
0	-1	0	-1	-2	-1	-1	0	1473868274434
0	-1	-2	3	1	1	0	-1	1473868274439
-1	-3	-1	-4	-5	1	-1	-2	1473868274435
0	0	-1	-3	-5	-1	0	-1	1473868274440
0	-2	0	2	6	-1	-1	1	1473868274481
-1	-1	1	1	-1	-2	-2	-1	1473868274486
-1	-2	-1	-2	-1	2	-2	0	1473868274481
-1	-1	-2	2	1	2	1	-1	1473868274486
-1	0	0	-3	1	0	-1	0	1473868274482
-1	1	-2	-3	-3	0	-2	-2	1473868274487
0	-1	-2	-5	-3	-4	-2	-2	1473868274528
-1	-2	1	2	1	-2	-1	-1	1473868274533
-1	-2	-2	-2	-2	-5	-1	-2	1473868274528
-1	-1	-1	1	2	-2	-2	-1	1473868274533
-2	0	0	3	-1	5	-1	-2	1473868274528
-3	-3	-1	-7	-4	0	0	0	1473868274533
-1	-1	0	5	3	-4	-2	-3	1473868274530
0	-2	-2	1	-1	0	0	0	1473868274535
-2	-1	0	-2	-1	-2	-1	-4	1473868274579
-1	0	-2	0	-2	-1	-3	-2	1473868274584
0	-3	-1	-3	-5	-6	-1	0	1473868274579
1	-1	-1	0	0	-2	-2	-1	1473868274584
0	-3	-2	-1	-2	-2	-1	0	1473868274622
2	1	-2	0	1	-4	-3	0	1473868274627
1	-2	-1	1	3	4	-2	-1	1473868274623
-2	-1	-3	-5	-3	-3	-1	-1	1473868274628
-1	-2	0	-1	-1	-3	-2	-2	1473868274624
-2	-1	-2	-1	-4	-3	-1	-2	1473868274629
0	1	-3	-2	-1	0	-1	0	1473868274626
1	-2	-2	0	1	0	-2	-1	1473868274631
-3	-1	1	0	-2	-3	0	-2	1473868274670
-1	-2	-1	-2	-1	1	-1	-1	1473868274675
-1	-3	-3	-2	-2	0	-2	0	1473868274672
0	-2	0	-2	0	-3	-3	-2	1473868274677
0	-1	0	-2	2	2	0	-1	1473868274673
1	0	0	1	-2	-1	0	-1	1473868274678
-1	-1	2	1	2	1	-1	-2	1473868274720
2	0	-2	-2	-3	-3	1	-1	1473868274725
1	-2	0	0	1	0	-1	-2	1473868274721
-1	-1	0	-4	-6	-2	-2	-2	1473868274726
1	-1	-2	-2	-1	-1	-1	-1	1473868274767
-4	-2	0	-2	-1	0	-1	-1	1473868274772
-1	-1	-2	-1	-3	-2	-1	-1	1473868274768
-2	-2	-1	-3	-2	-1	-2	-2	1473868274773
0	-3	0	-3	-4	-3	-2	-3	1473868274768
-1	-2	0	-1	-2	-1	-1	-3	1473868274773
-1	-1	-1	3	1	1	1	-1	1473868274771
-1	-1	-1	-9	-4	-2	-2	1	1473868274776
0	-2	-1	-3	-6	-1	-1	-1	1473868274812
-2	0	-2	-1	-3	-5	-3	-1	1473868274817
-3	-1	-1	-1	0	-2	-1	-1	1473868274812
0	-2	0	0	-4	0	-2	0	1473868274817
0	0	-2	0	0	-5	-2	0	1473868274860
-1	-2	-1	3	1	3	1	-1	1473868274865
-2	-1	-1	1	-3	-1	-8	-8	1473868274861
1	-2	-5	-13	-8	-15	11	6	1473868274866
-9	-3	-2	3	-6	-11	-42	-24	1473868274863
8	1	3	14	15	46	46	31	1473868274868
3	0	-1	1	9	7	50	11	1473868274864
-1	-2	2	1	-1	7	-1	-3	1473868274869
-2	-2	-2	-6	-7	-16	8	0	1473868274907
-5	-2	-3	-2	-11	-39	-12	-18	1473868274912
5	1	0	-1	7	9	30	7	1473868274908
-2	-2	0	14	-2	-4	-9	-6	1473868274913
0	-2	-5	-11	-18	-20	5	-2	1473868274910
-7	-1	3	10	9	-2	-49	-21	1473868274915
4	1	-3	5	19	17	64	30	1473868274912
3	2	18	5	-3	28	10	3	1473868274917
-1	-5	0	-14	-6	5	5	3	1473868274957
1	-3	-4	-11	-6	-2	-5	0	1473868274962
4	12	39	43	11	1	-8	0	1473868274957
-17	-17	-49	-38	-25	-23	-75	-31	1473868274962
2	-2	13	2	-20	-6	4	7	1473868275003
5	-1	-6	-15	41	45	43	21	1473868275008
-17	-8	-23	-26	7	-19	25	-37	1473868275003
13	5	43	34	53	53	16	5	1473868275008
1	12	23	21	7	29	11	5	1473868275007
-12	-11	6	7	-3	-12	19	-16	1473868275012
-3	-14	-94	-38	-36	-19	-47	-3	1473868275007
-16	-2	17	-8	-15	-17	-12	8	1473868275012
-7	-19	20	-30	-56	-33	-32	-31	1473868275050
-8	10	-10	6	81	18	-17	6	1473868275055
39	1	3	18	10	27	-38	25	1473868275052
-60	-8	16	-9	5	-21	31	-7	1473868275057
12	-1	-25	1	-9	16	-23	18	1473868275054
-9	-1	-6	-11	-62	-22	24	-5	1473868275059
-9	-3	-22	-3	-6	-33	2	-17	1473868275100
12	2	8	-3	-48	-11	-28	-3	1473868275105
-3	4	10	-17	39	-15	13	4	1473868275101
13	1	3	5	-28	0	-17	7	1473868275106
-6	-2	-15	3	27	-6	11	-6	1473868275146
1	3	21	23	30	4	0	1	1473868275151
7	2	5	-5	13	-10	14	8	1473868275146
-8	-13	-21	-3	1	-13	-8	-6	1473868275151
-10	-5	1	-4	4	28	10	-2	1473868275149
4	-6	-4	-1	-16	-6	-2	-1	1473868275154
0	4	0	16	43	14	-1	-4	1473868275151
1	10	4	-12	-25	-16	4	4	1473868275156
-1	1	4	6	14	17	21	0	1473868275193
4	3	6	7	5	13	10	6	1473868275198
-2	2	-12	-15	-5	1	-5	-2	1473868275195
-1	-11	1	-1	-42	-8	-8	-5	1473868275200
0	-4	-2	-8	7	-16	-4	1	1473868275196
1	-13	-1	7	9	-2	0	0	1473868275201
0	-23	-3	-2	-15	-20	-2	3	1473868275242
-4	6	-2	-6	23	0	-2	-3	1473868275247
9	23	0	28	15	25	2	5	1473868275243
-4	-62	2	-7	-1	-7	1	-4	1473868275248
-2	14	-3	18	23	13	0	-1	1473868275244
0	-3	-1	-2	-24	-12	0	-2	1473868275249
-1	-1	-5	-9	1	-3	-4	-2	1473868275289
1	16	-2	-14	-24	-7	-7	-4	1473868275294
-2	8	-1	-10	8	-19	-8	-2	1473868275289
3	20	0	1	-11	10	2	1	1473868275294
0	-13	1	6	5	-14	0	1	1473868275290
1	11	3	11	0	17	1	1	1473868275295
-3	-9	-4	-5	-13	-6	0	-2	1473868275291
2	12	0	-1	8	-16	-4	1	1473868275296
2	4	-5	-22	-26	-20	-8	-2	1473868275341
4	-2	1	-4	11	6	2	2	1473868275346
-1	-5	0	4	-12	-13	-2	1	1473868275341
-5	-6	-6	-15	-15	-1	-2	-4	1473868275346
-1	-1	0	26	28	13	3	1	1473868275388
-4	-2	1	-5	-2	-4	-1	-2	1473868275393
-3	-8	-3	0	16	-13	2	-2	1473868275388
2	-1	-7	2	18	28	2	-1	1473868275393
0	12	-1	5	-22	-9	-5	-1	1473868275389
3	0	9	5	11	6	5	2	1473868275394
0	-12	-3	-13	-10	1	-3	-2	1473868275389
-1	16	3	-6	-16	-20	-6	-3	1473868275394
-4	-14	-6	5	22	6	2	0	1473868275428
3	11	7	6	-4	1	1	0	1473868275433
-1	-4	5	8	-2	1	1	-1	1473868275431
-2	-4	-2	15	11	1	1	-2	1473868275436
-1	-7	0	17	4	2	1	-2	1473868275431
-1	11	-1	-9	6	4	-2	1	1473868275436
0	-3	0	-28	-14	-3	-3	-1	1473868275432
-2	-5	-6	18	4	-2	0	-2	1473868275437
0	18	9	1	-3	3	-2	-1	1473868275478
0	19	2	8	3	-7	0	-1	1473868275483
-6	-39	-18	-15	-1	-1	-1	-3	1473868275479
5	14	-1	3	0	0	0	0	1473868275484
0	15	7	0	-4	3	-1	-1	1473868275481
1	-10	1	15	3	-4	0	1	1473868275486
-3	2	-2	-32	-12	-6	-3	-2	1473868275524
-2	-6	-4	-12	-13	-10	-2	1	1473868275529
2	15	-2	19	3	0	1	-1	1473868275525
-2	-7	-24	-56	-9	-1	-1	-4	1473868275530
-2	8	-3	-3	-10	-8	-1	5	1473868275528
-8	-22	-14	-19	-10	-9	-3	0	1473868275533
0	12	26	22	7	3	0	0	1473868275528
-5	-4	8	31	12	-1	0	-7	1473868275533
-2	-32	-3	-7	-15	-7	-5	-1	1473868275572
-1	-10	3	11	8	0	4	-1	1473868275577
-2	-6	2	5	1	8	0	-3	1473868275573
0	-13	-11	-9	-4	-3	-3	-1	1473868275578
-5	0	-1	0	-2	-7	-2	-3	1473868275575
3	-2	-1	-2	-8	-1	-1	2	1473868275580
-2	4	3	3	-15	-7	-1	-2	1473868275620
-2	-14	-5	-10	-13	-9	-3	-6	1473868275625
0	1	1	-5	-1	2	2	8	1473868275621
-2	-2	-1	-5	-8	-1	-6	0	1473868275626
2	7	3	7	10	0	0	-2	1473868275674
-2	-10	1	5	-2	3	0	-3	1473868275679
-2	26	-3	9	4	-2	-1	-4	1473868275674
0	-9	-1	-15	-11	-3	-3	0	1473868275679
-2	5	-1	-12	-11	-3	0	0	1473868275674
-1	7	1	7	8	3	-1	2	1473868275679
-2	-5	-5	2	9	7	1	-3	1473868275717
1	-4	0	-6	-6	0	-2	0	1473868275722
-2	-3	-2	-6	-9	-5	-4	-2	1473868275717
-1	2	1	5	-2	-6	-4	0	1473868275722
2	5	-3	5	23	10	0	0	1473868275721
-1	2	1	-6	-17	-9	-3	-2	1473868275726
-1	-9	-6	-7	-18	-11	-6	-3	1473868275721
-3	-1	0	-7	-17	-5	0	0	1473868275726
-8	-12	-1	0	-13	-14	-3	-1	1473868275765
1	4	0	-4	-1	3	-1	-2	1473868275770
2	4	1	1	-1	2	0	1	1473868275766
-3	1	2	3	-6	-2	-3	-1	1473868275771
-4	-7	-3	-17	-10	0	-2	0	1473868275769
-3	-6	-1	8	9	-2	1	-1	1473868275774
1	-2	-2	-6	3	-2	-1	-2	1473868275812
-2	0	-1	12	-1	-2	1	-2	1473868275817
0	0	0	6	3	2	1	-1	1473868275813
0	-2	1	2	4	-3	-2	-1	1473868275818
1	6	-2	5	-4	-1	-1	-2	1473868275813
-1	1	-1	0	-1	-2	-1	0	1473868275818
-1	-5	-2	-12	-3	-3	-2	1	1473868275814
-2	-4	0	-2	-8	-8	-2	-1	1473868275819
1	3	0	1	-9	-8	-3	-1	1473868275857
-2	-2	-8	-11	-7	-4	-2	-2	1473868275862
2	1	-1	-3	-3	-2	-2	0	1473868275858
-4	-17	3	3	4	-1	1	-1	1473868275863
2	5	4	17	12	8	2	0	1473868275861
-2	1	3	1	1	1	0	-1	1473868275866
-1	0	2	4	-4	-1	-2	-2	1473868275904
1	-2	-10	-13	-2	-1	-1	0	1473868275909
1	-1	-3	7	7	2	1	1	1473868275909
-3	-5	3	9	-2	0	-1	-1	1473868275914
1	2	-3	-5	-5	-4	-3	-1	1473868275910
-1	-4	-3	-4	-8	-5	-4	-2	1473868275915
-2	-2	-1	-10	1	-7	-2	0	1473868275910
0	1	3	0	4	12	3	0	1473868275915
-3	-3	-2	-8	-4	-5	-1	-1	1473868275952
0	7	1	3	-6	-3	-2	-1	1473868275957
-1	-3	-1	3	3	-1	-2	0	1473868275955
0	-2	1	-11	-6	-2	-3	-2	1473868275960
0	0	-1	18	14	4	0	-1	1473868275956
0	-1	-1	2	-1	-2	0	-1	1473868275961
1	-1	1	3	2	2	-1	1	1473868276004
1	3	0	0	8	-1	1	2	1473868276009
0	0	-2	-4	2	9	1	-1	1473868276004
0	-1	0	1	4	-4	-1	0	1473868276009
0	-2	-5	5	-5	-1	-1	-2	1473868276004
-1	2	3	1	-3	1	-2	-3	1473868276009
0	0	-1	-4	0	1	1	-3	1473868276049
0	-2	-1	-2	-1	0	-1	-1	1473868276054
-1	0	-2	-5	-7	-8	-3	-2	1473868276049
-1	-2	-3	-5	-6	-7	-3	0	1473868276054
-1	-1	3	-17	-4	3	-1	-1	1473868276095
-2	-1	-2	22	10	0	0	-1	1473868276100
0	-2	-1	-1	-4	-8	-4	-1	1473868276097
-1	0	-2	1	6	4	-1	0	1473868276102
-1	-2	-3	-9	-5	-6	-2	-2	1473868276098
-1	-3	2	-2	1	-1	-1	-3	1473868276103
-3	-1	-2	-1	-4	2	-2	-1	1473868276143
0	-2	-5	-11	-6	-1	0	-2	1473868276148
1	0	0	-3	2	0	0	0	1473868276143
-4	-9	1	5	0	6	-2	-2	1473868276148
0	3	-4	0	2	-1	0	-2	1473868276145
-2	-12	-3	-9	-8	-5	-3	0	1473868276150
-1	-2	0	0	0	-2	1	0	1473868276146
1	1	-1	-4	2	0	-1	-2	1473868276151
-1	-2	-2	-5	-3	-6	-2	0	1473868276193
0	0	0	-4	-4	2	1	-2	1473868276198
-2	-1	0	2	0	5	0	0	1473868276193
-1	0	-1	1	1	1	1	0	1473868276198
-1	-2	0	2	0	0	0	0	1473868276237
0	3	0	1	2	0	0	-1	1473868276242
-2	-3	-1	3	12	-5	1	-1	1473868276238
-2	0	-1	0	2	7	1	1	1473868276243
1	-4	0	2	-1	5	2	-1	1473868276239
0	2	-1	-7	-5	-4	-2	0	1473868276244
-1	1	-3	-7	-10	-3	-3	-2	1473868276240
-3	-1	-1	1	1	-3	1	-1	1473868276245
-3	-2	1	4	4	-3	0	-1	1473868276284
0	0	-1	-3	3	6	1	-2	1473868276289
-1	-1	-1	5	6	3	0	-1	1473868276285
2	0	-2	-2	-1	-1	-1	0	1473868276290
-2	0	-2	-5	-7	-5	-3	-1	1473868276287
-1	-1	0	-2	-5	-2	-2	1	1473868276292
-3	-2	-4	2	-4	-4	-1	-2	1473868276380
0	7	5	11	11	5	3	1	1473868276385
1	1	-1	-6	-11	6	0	-1	1473868276383
1	0	0	2	-3	-14	-5	-4	1473868276388
1	-3	-3	-9	-6	-2	-6	-1	1473868276384
-2	-3	-1	-11	-22	-11	-4	-2	1473868276389
-2	-2	-5	-20	-36	-14	1	-1	1473868276428
-3	-4	-1	3	-28	-30	-5	-3	1473868276433
-9	6	-36	4	0	-18	-7	-6	1473868276430
-7	0	28	-22	-56	-23	-11	-7	1473868276435
-4	9	10	-37	15	-7	-3	-2	1473868276431
-1	-15	-19	15	16	32	2	1	1473868276436
-1	-9	-34	-1	-14	3	0	0	1473868276478
-1	-12	12	8	39	12	10	-2	1473868276483
5	15	17	40	15	26	3	2	1473868276478
3	-13	63	24	16	-5	-3	1	1473868276483
2	3	-66	-7	-3	9	0	-1	1473868276523
-16	-16	0	-42	-35	-26	-11	-9	1473868276528
-13	-40	-101	-25	2	5	-3	-6	1473868276523
-9	4	55	-15	-27	-17	-9	-7	1473868276528
1	5	84	-14	0	-1	-1	1	1473868276524
4	-3	-53	-8	9	6	1	5	1473868276529
21	-6	-33	66	11	9	6	11	1473868276526
-26	16	35	34	11	0	3	-18	1473868276531
69	47	124	-5	-4	-3	-3	-16	1473868276573
-20	-29	-96	-67	-27	-11	-10	-6	1473868276578
4	10	61	32	5	-3	-1	0	1473868276573
-11	-3	-45	-25	3	-1	-2	-24	1473868276578
-6	-12	-19	19	12	9	-12	8	1473868276617
19	30	88	46	7	2	17	9	1473868276622
-10	16	15	5	-1	1	-15	-22	1473868276619
-2	3	9	-10	-9	-4	8	13	1473868276624
-2	-14	-25	14	8	3	13	-1	1473868276619
-8	-4	-46	-17	0	11	7	15	1473868276624
16	8	7	-9	-5	-3	-4	-5	1473868276621
14	1	-37	-11	-7	-5	-11	-5	1473868276626
-8	13	9	-2	8	6	4	-3	1473868276666
12	13	13	19	11	10	2	3	1473868276671
-18	-10	0	2	-3	0	4	-3	1473868276667
1	14	-2	-8	4	4	-3	-7	1473868276672
4	-1	1	3	-2	-5	0	3	1473868276668
4	-13	-15	-2	-1	-1	0	5	1473868276673
-6	-5	-7	-16	-4	-5	-5	12	1473868276714
10	36	13	8	11	12	4	18	1473868276719
-14	3	3	13	12	4	2	-2	1473868276715
-6	-52	-8	-1	-2	-1	-6	-11	1473868276720
1	28	5	1	-9	-8	-4	-11	1473868276759
1	-7	-4	-1	-3	-8	1	-2	1473868276764
1	11	0	4	1	1	1	0	1473868276761
0	-8	5	-4	-1	-6	-3	0	1473868276766
-3	-6	-6	2	3	-1	-2	-4	1473868276762
-5	0	-1	-12	-12	-5	-4	-3	1473868276767
-4	-12	-2	2	-10	-3	2	-4	1473868276764
7	44	4	-3	16	7	2	3	1473868276769
-1	-3	-20	0	7	3	0	-2	1473868276812
1	-4	16	8	-1	-2	-1	-2	1473868276817
-2	-9	6	-7	-8	-3	-2	-2	1473868276812
2	7	-21	-1	-4	-1	-1	1	1473868276817
1	11	18	2	0	0	-2	-2	1473868276855
-12	-13	38	-13	-6	-6	-4	-4	1473868276860
0	-19	-14	-8	-2	1	0	2	1473868276858
-2	-10	-13	-12	8	3	2	1	1473868276863
-4	-8	31	12	-5	-5	-4	-4	1473868276858
-4	8	12	20	1	1	0	-4	1473868276863
2	12	-16	-5	-6	-6	-3	-1	1473868276902
3	-22	-2	7	1	2	1	0	1473868276907
20	25	12	7	-8	4	-2	0	1473868276902
-4	-20	-29	11	7	1	2	2	1473868276907
2	-11	40	0	2	0	-1	-14	1473868276904
8	30	-20	-1	-7	-3	-4	-5	1473868276909
-7	-22	9	-16	-2	-4	0	-4	1473868276905
12	-23	-50	-3	-4	-4	-4	19	1473868276910
6	10	-55	2	3	0	-1	19	1473868276953
12	-5	75	15	-1	2	0	-7	1473868276958
-26	-2	-64	-36	-4	-2	-4	14	1473868276953
-12	-15	13	-18	-5	-2	-1	-15	1473868276958
6	47	0	-4	2	0	0	4	1473868277002
-13	-81	13	11	-5	-3	-5	-5	1473868277007
-6	5	12	17	10	6	2	-14	1473868277003
-4	-9	-42	3	5	-1	1	2	1473868277008
11	20	26	0	-4	0	-2	2	1473868277003
-9	-49	1	-10	-5	-3	-2	-1	1473868277008
-11	-1	-1	-9	-5	0	-2	0	1473868277004
-19	-8	8	0	-2	1	-1	11	1473868277009
-33	6	-28	-2	-5	-5	-5	6	1473868277048
-31	-50	-33	-6	-3	-3	-5	-13	1473868277053
0	5	29	1	-1	-6	-1	10	1473868277049
13	-25	-11	-4	3	1	7	-5	1473868277054
57	15	7	10	7	9	2	-8	1473868277050
2	23	-25	-8	-3	-3	-5	-8	1473868277055
-9	4	-37	-5	-1	-2	-1	0	1473868277094
-20	0	28	5	3	1	1	-7	1473868277099
-10	3	8	-5	-2	3	1	-2	1473868277094
10	-5	-3	-2	2	-4	-4	-3	1473868277099
-13	-8	17	-6	-8	-6	1	-1	1473868277141
-4	-2	-20	-10	0	1	-2	10	1473868277146
-5	5	-35	-4	2	0	1	0	1473868277145
10	15	37	8	-6	-4	-3	-2	1473868277150
-14	-8	-41	-11	-1	-1	-1	0	1473868277145
4	-7	6	-8	-18	-3	-3	0	1473868277150
-6	-6	-14	-4	-3	-3	-3	-3	1473868277145
-1	6	21	5	4	9	3	1	1473868277150
8	44	23	4	2	2	-2	6	1473868277187
-5	-21	-13	-7	-8	-4	-2	-21	1473868277192
-12	2	34	8	9	1	3	10	1473868277188
33	22	-12	7	0	2	0	4	1473868277193
-22	-78	14	3	-1	-2	-3	-25	1473868277189
2	-2	-20	-8	-6	-5	-2	8	1473868277194
-2	-18	-3	-1	0	-9	0	-5	1473868277238
5	1	3	-11	-12	-18	-5	6	1473868277243
-2	8	-16	7	4	-7	1	-13	1473868277238
0	-25	3	-12	-4	0	-2	12	1473868277243
-5	3	3	7	6	-3	-1	3	1473868277282
-8	-4	-9	-3	-1	2	1	-1	1473868277287
-1	6	-50	-5	2	-4	0	3	1473868277285
9	11	13	-6	5	-1	3	5	1473868277290
-5	-4	-16	-13	-5	-6	-3	-7	1473868277286
-3	3	19	11	5	0	2	7	1473868277291
1	1	-31	2	-1	6	-1	2	1473868277287
3	32	25	6	1	6	-1	1	1473868277292
-8	9	8	4	6	2	-1	1	1473868277332
25	32	-11	-13	-9	-3	-3	4	1473868277337
-6	4	44	6	-3	-6	1	14	1473868277333
-3	-6	-51	4	2	-1	-3	-1	1473868277338
0	7	0	3	6	10	3	1	1473868277380
-9	-5	-7	-5	-2	1	-4	-4	1473868277385
-1	7	6	0	0	-4	-1	2	1473868277380
-7	-11	0	-1	5	6	-1	-6	1473868277385
0	-1	-8	-3	-1	11	2	-2	1473868277381
-3	-7	-18	-2	-3	15	-2	0	1473868277386
0	-2	10	0	-1	11	0	-5	1473868277381
-2	-4	2	-3	-8	2	0	1	1473868277386
0	1	14	2	-1	1	-3	-4	1473868277425
1	0	22	5	2	-3	0	0	1473868277430
-3	2	-7	-2	-2	-7	0	-1	1473868277427
-2	-4	-2	-2	-1	-8	-1	-4	1473868277432
2	3	12	-1	-3	-8	-2	0	1473868277428
-2	-6	0	-5	-2	-7	0	0	1473868277433
0	-1	-10	1	-4	-11	-2	-6	1473868277431
-1	-7	3	-3	-3	-6	-1	0	1473868277436
-1	-2	-3	-5	-3	-2	-2	0	1473868277475
-1	-1	-11	1	-2	-3	-1	-2	1473868277480
-1	-1	-3	-3	-3	-1	-3	-3	1473868277475
-2	-2	11	-4	-3	-3	0	0	1473868277480
-2	-1	2	1	3	7	-1	-4	1473868277520
-1	-4	-21	-6	0	3	0	3	1473868277525
-2	-1	-14	-4	0	1	0	6	1473868277521
0	-3	11	1	5	5	2	-16	1473868277526
-1	-1	-4	-1	-4	-4	-2	-2	1473868277523
2	-2	-7	-2	-2	-3	0	-1	1473868277528
-9	-3	13	1	0	-6	-1	-3	1473868277523
-9	2	-20	3	1	-6	-2	2	1473868277528
-3	-5	-6	-3	-2	-1	-3	0	1473868277568
6	1	8	-1	-2	1	-1	2	1473868277573
-13	1	19	3	2	-1	0	0	1473868277570
6	-2	-9	1	0	-3	-1	3	1473868277575
2	3	12	4	1	0	-3	-8	1473868277570
-4	-1	22	3	1	1	-2	-5	1473868277575
-6	-2	19	0	-3	-4	-2	-1	1473868277615
1	-2	-7	-5	-2	0	-3	4	1473868277620
5	1	-3	-1	-1	-1	-3	-5	1473868277616
-5	0	12	-4	-3	0	-2	1	1473868277621
-9	-2	-9	0	1	-1	1	3	1473868277619
11	-2	4	-1	-3	-1	-1	-4	1473868277624
2	1	-25	-7	-2	1	1	2	1473868277663
-4	-2	3	7	4	-2	1	-5	1473868277668
10	0	-35	1	-1	-2	-3	-15	1473868277663
-10	-2	-7	-3	-1	2	-1	0	1473868277668
12	2	16	1	0	4	1	-3	1473868277666
-6	-2	-32	3	0	2	1	3	1473868277671
-7	-2	17	-4	-5	-1	-3	-12	1473868277667
-5	-1	-7	-5	-4	-2	-2	-6	1473868277672
-12	1	11	-2	-4	-3	-1	-15	1473868277712
-4	-4	-6	-3	-3	-5	-2	1	1473868277717
0	-2	0	-3	0	-2	-2	-5	1473868277713
-6	0	3	1	0	0	0	1	1473868277718
2	-2	-2	-1	-1	3	0	6	1473868277758
4	3	11	4	-1	1	-1	0	1473868277763
-4	0	15	-3	-2	0	-1	-8	1473868277758
-8	-3	3	-1	-2	-2	-6	-6	1473868277763
-2	6	28	-1	0	-2	-1	20	1473868277759
11	1	9	7	2	-2	0	2	1473868277764
-10	0	-8	3	0	-1	0	9	1473868277806
34	1	-3	-5	-2	-1	-2	-18	1473868277811
-50	-5	-12	-3	-2	0	-3	-24	1473868277807
7	5	21	3	0	-1	0	10	1473868277812
13	4	0	1	-3	-4	-2	0	1473868277808
-10	-7	1	-2	-3	-6	0	4	1473868277813
13	0	21	7	3	5	0	-1	1473868277852
-3	4	3	3	1	-1	2	1	1473868277857
1	-2	-19	1	-1	0	1	8	1473868277853
-5	3	-2	-2	-1	-3	-3	-4	1473868277858
22	1	14	1	-2	-1	-2	5	1473868277854
-7	1	-2	-1	2	4	0	-7	1473868277859
-1	-4	-18	-7	-4	-5	-7	-3	1473868277902
2	1	13	-1	-3	-4	0	12	1473868277907
7	3	-5	1	-2	-3	-1	4	1473868277902
10	0	-1	-4	-3	-3	0	0	1473868277907
-17	1	5	4	-1	0	1	2	1473868277903
-7	-3	-11	-2	-4	-3	-5	-11	1473868277908
13	0	0	3	1	-2	6	7	1473868277904
-9	-2	11	0	-1	10	1	1	1473868277909
-7	-4	-22	-2	-2	-2	-3	-1	1473868277950
11	2	6	0	-4	-7	-3	3	1473868277955
-10	-1	1	-1	0	-1	0	-8	1473868277951
-9	-1	-11	1	2	2	1	3	1473868277956
0	-5	2	-5	-4	-3	-5	3	1473868277952
-7	-2	-8	-2	-1	1	-2	-5	1473868277957
-30	2	13	0	-3	-3	-3	-10	1473868277998
-6	-6	-46	-4	-2	-1	1	4	1473868278003
-7	0	7	-3	-1	-1	-2	-6	1473868277998
7	-1	-1	0	1	-4	0	-1	1473868278003
8	-1	-12	0	2	1	0	1	1473868278001
2	-3	25	0	-2	-8	-6	2	1473868278006
-9	0	-7	2	-2	13	1	-2	1473868278044
-14	-7	-40	-6	-4	-6	-4	0	1473868278049
12	2	19	2	-1	-7	-4	-3	1473868278044
-3	1	18	2	2	6	1	4	1473868278049
-7	2	-6	0	-1	1	0	-7	1473868278045
10	-1	-1	-2	0	-2	1	5	1473868278050
2	-3	-5	-2	-1	-4	-1	0	1473868278046
-13	-2	-4	-2	-2	-1	0	-9	1473868278051
-1	0	35	1	2	0	0	0	1473868278092
-5	-1	-30	-4	0	0	-3	-3	1473868278097
4	-3	0	1	2	1	0	2	1473868278093
-4	-2	5	-3	-2	-1	0	-1	1473868278098
0	0	-10	-2	-2	2	0	3	1473868278094
3	3	15	1	0	-2	-1	-1	1473868278099
1	1	-6	-1	-2	-2	-3	-1	1473868278140
-8	-4	3	-3	1	0	-1	-4	1473868278145
7	-6	-3	-4	-3	-3	1	8	1473868278141
-6	2	14	0	-3	-1	-2	-11	1473868278146
14	3	13	4	0	-2	2	13	1473868278142
-10	-2	-27	-2	-2	-2	0	-6	1473868278147
2	3	16	3	1	2	1	2	1473868278186
-3	-4	-39	-3	-3	0	-1	2	1473868278191
-1	-2	3	-1	-1	-1	-1	-2	1473868278186
3	-2	4	-1	1	0	-1	5	1473868278191
3	2	-2	-4	-2	0	0	-3	1473868278187
-6	-2	36	3	-1	-2	-2	-1	1473868278192
11	-1	-24	-1	2	0	-1	-3	1473868278188
-24	-3	11	-1	0	-1	-4	-6	1473868278193
16	1	4	-2	-1	0	-1	0	1473868278234
-30	-4	-10	-2	-2	-2	-2	-12	1473868278239
10	1	-1	-1	0	0	-4	-4	1473868278235
-1	4	37	3	1	0	-1	3	1473868278240
5	-4	-10	-1	-1	-2	-1	0	1473868278281
-16	-9	-22	-5	-4	-1	-2	-7	1473868278286
-3	5	-7	-2	-3	1	-2	-4	1473868278283
8	-3	20	-5	-3	-1	-1	3	1473868278288
-15	-10	-36	2	1	0	-1	-7	1473868278283
0	-2	45	3	-1	-6	-1	0	1473868278288
-2	0	-6	0	0	1	-1	5	1473868278285
0	2	-3	0	1	1	0	2	1473868278290
-9	3	26	-4	-3	-3	-2	-4	1473868278328
26	-5	-49	-3	0	0	-1	-1	1473868278333
-12	-2	30	-1	-1	-2	-4	-4	1473868278330
-2	-3	-53	-1	-1	-2	1	1	1473868278335
-14	-7	-12	2	1	-1	1	-5	1473868278331
8	12	27	-8	-4	-1	-1	-2	1473868278336
0	-9	-5	5	4	0	-1	2	1473868278331
-1	-4	-4	-2	-3	-2	0	2	1473868278336
9	-6	15	-5	-4	-2	-3	-1	1473868278376
8	2	14	8	-1	-3	2	7	1473868278381
-11	-4	-9	-8	-3	-2	-4	-15	1473868278377
0	5	36	5	4	5	0	0	1473868278382
-10	-7	-9	-6	-2	-5	-1	-6	1473868278378
11	-4	-16	-1	0	1	0	4	1473868278383
-18	0	4	2	-1	-10	-3	-5	1473868278422
5	3	24	-2	-1	17	11	15	1473868278427
8	0	-8	1	0	3	2	6	1473868278423
-3	2	9	0	1	-8	-3	1	1473868278428
3	2	3	-2	-1	4	-1	8	1473868278425
-4	-4	-8	3	0	-3	-1	5	1473868278430
7	0	-9	-5	-4	-2	-2	-3	1473868278426
-4	-4	-17	-5	-5	-5	-2	-4	1473868278431
6	0	-16	-1	-3	3	0	10	1473868278474
-4	-2	7	1	-2	-2	-3	-6	1473868278479
0	-5	15	-4	-1	-1	0	13	1473868278474
-2	4	-15	7	1	0	-2	-12	1473868278479
-5	-7	16	-4	-3	-4	-1	-3	1473868278475
4	2	7	3	3	-2	1	2	1473868278480
3	-3	-51	-2	-1	0	-2	-3	1473868278521
-2	-7	0	-4	-1	1	-3	-3	1473868278526
8	-5	-14	-2	-2	0	-1	-3	1473868278521
-22	-1	-4	-3	0	0	-4	-10	1473868278526
10	0	16	3	-1	0	-1	4	1473868278522
-6	-3	-9	-3	-1	1	-1	0	1473868278527
17	-1	-11	0	1	1	-1	-2	1473868278565
-4	-2	-5	0	2	1	0	-2	1473868278570
5	0	43	-1	-2	-2	0	8	1473868278566
-4	-1	-54	-4	-3	-3	-2	14	1473868278571
-13	-6	-1	0	0	-3	1	-8	1473868278569
6	1	3	-2	-2	-1	-2	-2	1473868278574
-8	-1	-8	-1	-1	2	1	-2	1473868278569
3	-3	3	0	-2	-2	-1	-5	1473868278574
6	-2	-17	-3	-1	1	0	8	1473868278614
6	0	4	-1	-3	-2	-2	-6	1473868278619
-6	5	-7	3	-1	0	2	9	1473868278614
8	-7	46	-1	-1	-1	-1	-4	1473868278619
-7	0	-36	-4	0	0	1	-11	1473868278659
-2	-3	-5	-1	-3	-5	-4	15	1473868278664
-9	-7	-2	-1	1	6	8	-6	1473868278661
6	3	-5	0	-2	2	0	1	1473868278666
5	3	4	-1	-3	-10	-2	-3	1473868278662
8	3	5	0	-2	-6	-8	-7	1473868278667
0	1	0	-3	-3	0	-5	5	1473868278663
1	-1	-2	5	0	-1	1	-2	1473868278668
-4	1	1	3	-3	1	-1	-1	1473868278710
-2	-5	-9	-1	-3	-3	-2	-4	1473868278715
-1	0	5	-5	-2	-5	-2	1	1473868278711
1	4	-1	0	1	1	-1	-3	1473868278716
-6	-10	-11	0	0	2	0	-4	1473868278756
3	7	13	8	0	-5	-2	-1	1473868278761
0	2	-8	2	0	0	0	1	1473868278757
2	4	3	-1	-2	-1	0	0	1473868278762
-6	-6	-4	-3	-1	-3	-1	-4	1473868278758
-2	0	-4	1	1	0	0	0	1473868278763
-13	0	9	0	0	1	0	-5	1473868278759
27	1	-7	0	-1	-2	-3	-12	1473868278764
-4	3	4	-1	-3	-2	-2	-10	1473868278807
9	-1	-5	-1	-2	-2	0	20	1473868278812
2	-1	1	-1	-1	0	0	-5	1473868278807
-6	-1	0	2	0	-1	-1	2	1473868278812
4	-1	-2	-8	-2	1	-1	-4	1473868278853
-4	-4	-6	5	2	-3	0	-7	1473868278858
-5	-3	-3	0	-4	-5	-1	-1	1473868278853
1	0	0	-1	1	-6	-2	-3	1473868278858
-2	-3	0	-1	2	7	-1	-3	1473868278856
-1	1	-2	1	3	-1	0	-1	1473868278861
-5	0	1	-2	-3	-1	0	1	1473868278899
1	-2	-4	-4	-6	-5	-2	-2	1473868278904
24	-2	3	-1	-1	-1	-10	0	1473868278899
-1	-3	-3	-1	0	0	-1	-1	1473868278904
-3	2	0	2	0	-12	-3	3	1473868278946
-1	0	-2	3	3	8	5	-3	1473868278951
-5	-1	-4	-5	-5	11	2	1	1473868278946
-3	-2	-1	2	-1	-4	11	2	1473868278951
-5	1	1	5	3	1	3	2	1473868278992
3	-5	-4	0	-3	-4	-5	-6	1473868278997
-2	-1	-2	-2	-4	-9	-1	2	1473868278997
0	-1	0	0	-6	-7	-4	-5	1473868279002
-1	0	-3	1	1	4	1	-1	1473868278997
0	0	-1	-9	-7	0	-2	2	1473868279002
-8	-3	-2	3	1	-4	2	-1	1473868278998
0	-1	0	3	-1	-4	-3	-1	1473868279003
-2	1	5	-1	-3	-4	-1	0	1473868279045
-1	0	-10	1	-1	0	-2	-4	1473868279050
-3	-1	0	-2	-1	2	0	0	1473868279045
0	-3	-4	-2	-1	0	-2	-1	1473868279050
-5	-2	-3	0	-2	-5	-2	-4	1473868279046
1	-3	-1	0	1	0	-1	-2	1473868279051
-1	-1	-3	-3	-2	-4	-2	0	1473868279089
-3	1	3	2	1	-1	0	-4	1473868279094
-5	0	-4	-3	-3	5	1	8	1473868279089
11	-1	0	-10	-1	0	1	-6	1473868279094
-2	0	1	3	2	2	-1	-3	1473868279136
-1	-3	-5	0	-2	-2	-2	0	1473868279141
-4	-4	-6	-1	0	3	5	-1	1473868279136
-4	-2	2	2	-1	-2	-5	1	1473868279141
0	-3	-6	-4	-5	-3	-2	-3	1473868279140
-3	1	1	0	-2	-5	-3	-2	1473868279145
1	0	0	-2	-1	-1	-1	1	1473868279140
-2	-2	1	0	-1	-1	1	-2	1473868279145
11	-1	-5	0	0	0	-3	-2	1473868279185
-2	-1	4	-1	-1	-3	-2	-2	1473868279190
-1	0	-2	-1	1	-1	-1	1	1473868279186
-2	-1	-2	-1	-2	-1	-1	-3	1473868279191
-3	-1	-3	-3	-2	-5	-3	-1	1473868279186
-2	-1	2	0	1	0	0	0	1473868279191
-8	-1	-2	-2	0	2	0	-2	1473868279232
17	-1	-1	0	-1	-3	-1	-2	1473868279237
-2	1	1	3	-1	-3	-2	-1	1473868279232
1	-1	0	-11	-4	-2	-1	-3	1473868279237
-3	0	2	5	1	-1	-2	-1	1473868279279
-5	-3	-2	0	0	-2	0	4	1473868279284
-2	1	-1	2	2	-5	0	-3	1473868279279
-3	-3	-3	-2	0	11	1	1	1473868279284
1	-2	-3	-2	0	-4	-2	1	1473868279280
-2	-2	0	-2	-3	0	0	-2	1473868279285
-3	-1	1	-3	-3	-4	-1	1	1473868279283
-1	-1	-2	3	-1	-7	-1	-5	1473868279288
0	0	0	1	-1	1	-2	2	1473868279328
-5	-1	-2	-16	-2	1	1	1	1473868279333
-1	-2	-1	5	4	0	-1	-4	1473868279328
1	1	0	4	-2	-2	-1	-1	1473868279333
-1	-2	2	-4	-6	-5	-2	0	1473868279372
-2	0	-7	1	-3	-6	-1	-1	1473868279377
-2	-1	-4	6	3	-12	-3	1	1473868279373
0	0	4	0	-3	30	-2	1	1473868279378
-2	0	11	-4	-11	-23	-27	-5	1473868279374
-2	-7	-42	0	-29	13	22	-3	1473868279379
1	0	-3	-19	23	24	25	5	1473868279376
0	-2	3	27	-21	4	9	0	1473868279381
2	3	0	-9	89	21	4	1	1473868279420
0	-1	14	23	-1	0	-22	-4	1473868279425
-1	-1	-4	-9	-40	-11	-3	-1	1473868279420
-2	0	5	-13	3	-19	-4	-1	1473868279425
-1	-3	-3	1	-3	7	1	1	1473868279422
-2	0	6	-2	7	-10	-4	0	1473868279427
-2	-2	-9	5	-5	7	6	-1	1473868279423
0	2	6	-5	11	-2	0	0	1473868279428
1	3	5	0	-7	-3	-6	2	1473868279470
-1	-4	4	-4	12	-1	0	-1	1473868279475
-1	-2	13	10	-4	5	5	-1	1473868279471
5	54	-38	-5	-7	-11	-4	1	1473868279476
-7	-54	12	1	-1	-7	-3	-1	1473868279516
-1	-1	-3	-4	-1	11	2	1	1473868279521
-3	-3	-71	-12	-13	-6	-3	-1	1473868279517
-3	-19	8	-4	-5	-8	-4	-4	1473868279522
0	11	7	-1	-10	-13	-3	-2	1473868279518
1	-8	13	-1	0	-7	-3	-1	1473868279523
2	8	10	-2	-9	0	1	-4	1473868279519
-3	-13	2	1	9	8	0	0	1473868279524
-1	-1	6	0	-6	-4	1	-2	1473868279563
-2	-13	-4	-6	-5	0	1	-2	1473868279568
0	4	14	3	0	-1	-1	-3	1473868279566
-3	-3	-23	-2	5	-6	2	-6	1473868279571
-2	0	7	-4	-7	-1	-5	-2	1473868279566
-5	-13	11	0	-3	4	-2	9	1473868279571
-5	-4	-13	2	1	-4	-7	1	1473868279661
-2	-1	9	-3	0	0	-3	2	1473868279666
2	-3	-51	-8	-6	4	-1	-1	1473868279664
-3	-7	-22	0	-1	-3	-1	0	1473868279669
-1	4	12	-5	-3	-7	-4	-4	1473868279705
0	-3	8	2	3	2	-3	-1	1473868279710
-3	-1	5	3	1	-2	1	1	1473868279707
2	-4	-2	-4	-5	-7	-1	-2	1473868279712
-1	1	4	-5	-15	-16	2	1	1473868279709
-2	-2	-12	5	31	24	-8	-2	1473868279714
-1	4	21	2	5	11	17	-5	1473868279710
2	-6	-7	-3	-37	-13	-11	6	1473868279715
0	0	2	14	-1	16	-2	0	1473868279756
0	-3	-13	-2	-22	-16	-6	0	1473868279761
-4	-3	4	-7	16	-13	-8	-2	1473868279757
-3	-3	-8	-23	-95	-37	-19	-6	1473868279762
2	1	7	-9	41	-55	8	3	1473868279757
1	3	0	32	63	103	25	3	1473868279762
3	2	5	12	-9	-15	7	3	1473868279800
-2	-1	4	7	42	-4	2	-3	1473868279805
1	0	14	0	57	5	3	2	1473868279800
0	-8	-19	43	17	43	8	0	1473868279805
-1	6	-23	-21	6	1	-7	-5	1473868279802
-3	-8	-15	-69	-95	-48	-20	-4	1473868279807
-4	5	20	11	-33	-40	-9	-3	1473868279804
2	14	17	-35	90	43	17	5	1473868279809
1	23	-3	-8	-7	0	-1	2	1473868279849
-4	-6	24	-8	-12	-3	-2	-6	1473868279854
-1	2	30	9	18	1	-4	3	1473868279850
2	13	27	16	-21	-5	-1	-3	1473868279855
0	-8	-3	-3	-15	1	-3	-2	1473868279894
17	3	8	13	34	-25	-7	23	1473868279899
5	-2	-55	0	-3	5	5	3	1473868279896
-11	-24	51	-12	-9	-23	-9	-9	1473868279901
5	-10	-11	14	18	10	0	11	1473868279897
-5	-1	2	0	-11	0	-10	-10	1473868279902
0	-3	17	-6	-6	-17	-3	18	1473868279899
-10	1	43	22	1	5	-1	-13	1473868279904
17	5	-63	-22	-1	-5	-9	13	1473868279944
20	87	54	17	-1	-8	10	12	1473868279949
-28	-83	8	-7	-10	-3	-8	-11	1473868279944
-14	20	-10	0	-8	-14	-2	-3	1473868279949
12	53	-37	-6	3	0	3	-6	1473868279948
-11	8	-16	-9	-5	4	-4	-5	1473868279953
35	13	49	35	-3	-8	-4	7	1473868279948
-1	-44	-75	-44	-12	2	2	8	1473868279953
4	20	22	5	-12	-1	-1	-4	1473868279992
9	-6	-47	10	1	-16	7	11	1473868279997
7	16	15	11	23	30	7	8	1473868279994
-1	-9	13	7	-2	10	5	4	1473868279999
-4	-3	-3	3	2	-3	2	-9	1473868280038
0	2	-11	23	0	-4	2	9	1473868280043
-6	1	65	14	-1	0	3	-2	1473868280039
-4	-24	-21	-6	2	-1	-4	-6	1473868280044
-4	22	-4	3	3	4	1	5	1473868280039
-9	-57	14	-18	-2	1	-7	0	1473868280044
-2	6	52	-8	-11	-5	-6	-21	1473868280041
6	33	-21	11	-3	-7	-6	5	1473868280046
7	4	-30	1	11	0	0	6	1473868280086
-10	-28	38	12	-6	-9	6	-2	1473868280091
6	32	7	0	-3	-5	-16	-4	1473868280087
8	5	-19	-26	-9	7	-6	-1	1473868280092
1	-9	-12	5	2	-5	-1	0	1473868280088
-7	4	11	47	16	13	11	7	1473868280093
-4	6	-28	-20	-1	6	4	25	1473868280134
4	-9	13	9	5	1	6	-12	1473868280139
8	18	-27	1	-2	-5	0	7	1473868280135
-7	-10	38	18	-1	-6	-12	-14	1473868280140
-9	-13	-60	-63	-12	-9	-6	-15	1473868280136
1	10	6	-4	-2	-2	3	16	1473868280141
10	15	14	17	9	2	4	-2	1473868280179
-11	-1	10	-9	8	3	-1	2	1473868280184
-3	-8	18	11	-1	5	4	-2	1473868280181
-10	-4	3	-23	2	2	-2	0	1473868280186
4	11	7	13	10	4	3	-1	1473868280182
7	11	7	-1	-2	-2	-2	-9	1473868280187
-8	-4	-49	8	-2	-1	-4	1	1473868280183
-4	9	21	-13	-9	-4	1	6	1473868280188
-1	6	37	28	9	6	10	-1	1473868280230
1	-3	-15	-6	-3	-5	3	-4	1473868280235
0	8	-19	-7	-1	10	-3	-1	1473868280231
0	-3	-17	-12	-8	-9	-2	-5	1473868280236
-2	-12	25	6	2	1	0	1	1473868280275
-3	14	-7	27	4	3	-1	-3	1473868280280
0	-3	-7	0	-7	-4	-5	-2	1473868280275
-5	-7	6	-14	-8	-4	-5	-4	1473868280280
0	12	43	5	0	-5	0	-1	1473868280278
0	-11	-19	-1	-2	5	4	-1	1473868280283
0	-7	-52	17	14	5	0	2	1473868280323
1	29	67	14	-20	-1	4	-1	1473868280328
-4	-8	-24	-9	29	5	3	-1	1473868280323
-3	10	24	-2	-4	1	0	-2	1473868280328
3	-5	-18	7	-2	-5	1	3	1473868280324
-5	-4	16	-4	-1	-5	-6	-4	1473868280329
0	0	13	8	1	-1	-2	-3	1473868280326
2	-5	0	-5	-3	-3	-3	6	1473868280331
-8	-6	5	5	-4	-1	-5	-3	1473868280370
1	3	17	2	7	-2	-6	1	1473868280375
3	5	5	-3	-6	-3	-4	5	1473868280373
-5	-2	-5	11	14	4	8	-8	1473868280378
-13	-6	-1	-2	-3	-2	-4	-5	1473868280373
5	2	-23	-4	-8	-2	3	2	1473868280378
-3	-9	-33	-22	-3	-2	-3	-8	1473868280416
6	-3	-52	-18	2	-2	-3	3	1473868280421
-15	2	14	1	-6	-7	-11	-2	1473868280416
22	1	21	-8	-8	-27	-10	3	1473868280421
-11	30	-34	10	0	-17	-9	-1	1473868280418
13	-13	24	-16	1	25	3	-31	1473868280423
46	-10	-7	-2	0	36	21	28	1473868280419
-37	-11	-49	-13	0	5	35	-21	1473868280424
0	-5	-19	0	-6	-7	-3	50	1473868280464
31	14	-42	-10	2	4	-10	-7	1473868280469
-23	-43	11	-11	-8	-14	-12	36	1473868280465
-48	23	-7	4	0	-1	2	-13	1473868280470
6	15	10	-11	-2	-6	-9	-25	1473868280466
16	-22	-11	4	1	6	5	21	1473868280471
-16	-9	-14	-2	-5	-10	-20	-47	1473868280513
2	-4	-13	8	5	14	4	24	1473868280518
-3	15	38	0	-3	-7	-10	-53	1473868280515
1	-2	16	10	3	3	3	-4	1473868280520
-14	-35	-30	-21	-4	3	2	9	1473868280516
18	21	29	0	1	-5	-26	14	1473868280521
-7	-9	-20	2	2	-5	16	-8	1473868280560
-15	-17	-29	-12	-8	1	-8	3	1473868280565
-13	-13	-90	10	-2	-3	-12	-19	1473868280562
-7	4	-36	-41	-14	-6	-4	-5	1473868280567
-5	9	26	23	-9	5	4	-9	1473868280563
19	4	-16	1	29	8	14	24	1473868280568
-13	-6	18	26	2	-14	-12	-20	1473868280564
-10	2	15	34	14	10	5	0	1473868280569
6	-1	96	46	8	11	10	8	1473868280609
9	9	-48	-43	-15	-14	0	3	1473868280614
-15	-1	-17	-70	-36	-13	-11	-18	1473868280614
-5	-1	25	39	12	7	3	2	1473868280619
5	2	-3	-2	4	2	4	2	1473868280653
3	-5	-1	19	6	-1	3	5	1473868280658
-1	-9	-49	0	0	1	6	0	1473868280654
-1	1	42	23	6	1	-3	3	1473868280659
-2	-3	2	-26	-7	-1	-3	-6	1473868280655
0	11	51	-3	-10	-5	-4	-2	1473868280660
-2	7	4	6	4	1	2	-2	1473868280657
1	-12	-21	11	6	0	4	4	1473868280662
-6	-1	11	-11	-7	-5	-2	-4	1473868280703
-3	2	-30	-5	-4	-4	-3	-2	1473868280708
-3	-3	15	-6	-13	-9	-5	-5	1473868280707
-2	10	-9	6	4	3	0	0	1473868280712
-1	0	9	1	5	3	4	1	1473868280708
2	-5	21	1	-3	-4	-2	0	1473868280713
-4	-4	-28	-5	-5	-2	-5	-6	1473868280708
-3	6	22	-1	-2	-3	-1	-1	1473868280713
0	-2	5	4	-1	-2	-2	-4	1473868280750
-2	-5	-25	0	1	0	-1	-3	1473868280755
0	-1	4	-3	-2	-1	-1	12	1473868280751
-4	-4	0	-6	-5	-2	-2	-15	1473868280756
1	2	-11	-3	0	1	-1	1	1473868280801
-8	-3	0	1	1	-1	1	-1	1473868280806
1	-1	3	2	-3	-5	-8	21	1473868280801
-30	-4	17	-6	-3	7	2	-21	1473868280806
15	4	0	-2	-1	9	9	3	1473868280801
2	3	0	-1	-2	-2	1	15	1473868280806
-7	1	-6	1	0	-3	3	-15	1473868280805
8	-2	2	-1	2	-5	-14	9	1473868280810
3	-4	25	-4	-5	-4	-11	-10	1473868280844
13	-7	-77	-5	-3	-19	-10	14	1473868280849
-31	-3	22	0	0	8	-1	4	1473868280846
24	8	17	9	4	3	5	8	1473868280851
9	-8	-17	-4	3	9	6	-12	1473868280848
-31	1	31	-4	-4	-5	0	5	1473868280853
-6	-11	-33	-5	-2	-7	2	-8	1473868280895
-15	3	24	2	1	5	3	19	1473868280900
56	3	-5	-2	-4	-5	3	7	1473868280895
-32	8	-9	1	0	5	-6	1	1473868280900
10	0	35	13	3	-18	-5	-8	1473868280897
-17	-13	-5	-5	-2	24	1	-22	1473868280902
-25	-6	-16	-23	-2	-14	-3	14	1473868280938
81	13	-11	-3	-9	-28	-22	18	1473868280943
-66	-10	-77	-1	1	18	-5	43	1473868280939
-9	-4	18	5	4	14	7	-8	1473868280944
8	6	3	2	4	-2	-13	-9	1473868280941
12	3	-4	-17	-8	-35	-18	3	1473868280946
9	-4	33	6	1	10	4	30	1473868280942
-48	-14	-14	-10	-5	3	16	-2	1473868280947
4	-6	11	8	1	-9	0	-5	1473868280986
27	1	-9	-21	-5	-3	-4	20	1473868280991
-4	-1	67	-3	-2	3	2	7	1473868280988
-10	1	-111	-14	-1	-3	-4	-10	1473868280993
9	4	97	4	-2	-6	-1	-44	1473868280994
14	-1	-12	11	4	9	4	30	1473868280999
-6	-6	-29	-8	-1	-3	-1	9	1473868281037
16	-1	14	1	-2	-5	-4	0	1473868281042
20	2	4	-4	-3	0	0	-7	1473868281037
-87	-13	7	-3	-1	-2	1	-6	1473868281042
-17	-10	-32	-8	-2	-4	0	-9	1473868281038
-4	-12	-4	-12	-8	-14	-15	-17	1473868281043
6	8	-10	3	6	9	8	14	1473868281081
31	3	7	5	1	-5	1	7	1473868281086
10	0	-25	-6	-4	-9	-4	26	1473868281082
-14	-9	-34	1	0	-6	4	-17	1473868281087
21	-3	-2	-1	0	6	2	31	1473868281084
-7	-2	20	0	2	-8	-10	-31	1473868281089
-59	17	71	9	-2	3	-48	23	1473868281129
4	12	52	14	9	2	33	-25	1473868281134
19	-34	69	7	-1	-5	18	23	1473868281131
22	7	9	2	0	-9	0	0	1473868281136
17	-3	-13	0	-1	-2	-16	-39	1473868281132
-52	5	11	3	0	1	9	19	1473868281137
0	18	-11	1	0	-14	-3	-22	1473868281177
15	0	-77	-4	3	37	0	29	1473868281182
-16	8	-21	-1	-5	-21	-29	-1	1473868281178
0	3	16	1	4	23	13	23	1473868281183
13	-2	-25	-9	-5	-6	-11	-8	1473868281178
-12	-14	-2	-3	-2	-1	-17	8	1473868281183
17	5	11	7	1	1	8	1	1473868281224
8	5	4	-1	-1	-17	19	-8	1473868281229
-20	-9	28	-8	-2	-2	17	44	1473868281225
-10	-5	-46	2	-4	-21	-16	-8	1473868281230
-7	19	-31	8	15	25	12	89	1473868281228
-38	-25	10	-14	-9	23	33	-5	1473868281233
-6	8	-3	8	1	-14	1	-27	1473868281271
17	-2	32	-3	-4	-17	11	14	1473868281276
15	2	-24	-1	3	10	-5	-32	1473868281274
-8	-3	29	6	-2	-17	-12	-5	1473868281279
16	0	0	1	-5	0	-4	-3	1473868281275
3	-1	-8	-2	-9	-10	-20	-17	1473868281280
4	-2	-9	-11	-1	10	0	1	1473868281276
9	2	13	-4	7	3	-3	10	1473868281281
34	8	-14	-1	13	23	11	-10	1473868281320
-4	6	10	9	-6	4	5	2	1473868281325
-7	-15	18	-13	11	5	-2	-24	1473868281321
17	0	-29	7	-10	-18	-7	-5	1473868281326
-11	-6	13	-6	-11	-5	-9	-9	1473868281367
-9	12	8	0	9	7	11	-2	1473868281372
-3	-7	14	15	-11	-1	-4	-4	1473868281368
1	-3	-33	-15	6	-6	-13	-2	1473868281373
-17	9	0	10	34	19	37	5	1473868281369
37	3	10	-9	-17	-17	-9	-7	1473868281374
-28	-7	-14	-12	-8	-8	-6	5	1473868281414
18	3	-18	-25	-13	24	16	28	1473868281419
-24	-1	-17	-20	-8	-1	-7	-22	1473868281416
9	-3	-51	-5	-4	25	-3	-11	1473868281421
-22	5	71	16	23	-4	-1	33	1473868281416
-9	-7	-2	1	-5	8	1	-19	1473868281421
-7	5	5	-7	-3	-4	-14	1	1473868281417
-34	12	-4	5	-31	-25	-6	-35	1473868281422
9	-8	-17	7	-15	8	58	68	1473868281557
3	-1	26	6	13	-14	-5	-21	1473868281562
24	5	-18	-9	4	24	-5	-1	1473868281558
-18	4	12	1	10	-14	11	12	1473868281563
-38	-5	-6	8	-24	5	-22	-46	1473868281559
33	-3	-5	-20	-8	-13	9	-26	1473868281564
0	14	31	24	7	-13	-30	-44	1473868281608
-11	-13	-43	-30	-3	13	17	30	1473868281613
13	-2	-15	15	1	4	-8	-23	1473868281610
-13	-1	14	16	5	3	-8	-2	1473868281615
-18	-11	-42	-46	-3	5	-5	-23	1473868281610
2	-2	4	4	-6	-7	14	17	1473868281615
14	7	31	14	-6	-16	-9	-12	1473868281652
-6	-5	11	0	0	2	4	4	1473868281657
2	5	7	-14	-1	2	-4	-34	1473868281655
-6	-19	-19	28	-1	-8	2	27	1473868281660
20	12	-13	-29	-39	-7	0	0	1473868281656
-14	0	4	13	61	20	6	-7	1473868281661
-11	-15	-31	-15	-5	-19	-6	-3	1473868281656
8	7	20	18	11	11	3	5	1473868281661
41	17	-2	-9	10	11	26	18	1473868281702
-6	-10	4	8	-16	-3	-41	37	1473868281707
-36	-11	-11	-20	-19	-44	13	-17	1473868281702
-5	-18	-1	-7	-5	18	-17	-39	1473868281707
-28	-13	0	8	10	-8	-6	11	1473868281747
59	31	0	3	1	8	3	4	1473868281752
70	14	-3	3	7	-8	-8	10	1473868281748
-22	7	14	8	2	9	12	-30	1473868281753
26	-10	7	1	-5	4	-5	9	1473868281748
-24	-22	-45	-2	-2	-9	15	-67	1473868281753
-100	-3	-52	-25	-1	-3	-16	-64	1473868281799
57	40	12	7	-1	-4	10	34	1473868281804
-12	1	-2	13	-1	-6	-23	-23	1473868281805
-22	57	-6	0	4	4	34	32	1473868281810
-11	-8	6	-5	1	-3	-1	-34	1473868281805
-41	-73	-3	-4	-1	12	5	16	1473868281810
25	10	5	4	0	2	-2	35	1473868281805
18	37	-5	-6	-2	-11	-34	-39	1473868281810
-41	30	-14	0	1	0	-19	-17	1473868281843
-30	-78	-24	-15	-7	0	-36	-106	1473868281848
7	104	-6	2	3	16	-29	-2	1473868281843
16	-32	23	12	5	5	36	-65	1473868281848
13	34	-2	-2	-1	-1	2	1	1473868281889
-63	-36	-1	-8	-6	-11	11	-69	1473868281894
70	12	11	-1	0	-3	-1	33	1473868281889
-16	120	12	14	7	2	-2	66	1473868281894
-8	89	14	3	-3	0	17	0	1473868281890
53	-57	7	4	2	1	3	32	1473868281895
98	16	11	-2	-5	-5	-13	70	1473868281893
33	-13	-6	-3	3	2	27	21	1473868281898
-4	-85	-38	-7	-8	-7	9	19	1473868281937
4	19	-16	-33	-5	-1	-5	23	1473868281942
-11	-24	5	-10	-2	1	13	12	1473868281937
6	15	-1	4	-1	0	-11	4	1473868281942
9	-13	-2	-1	1	2	1	-12	1473868281940
-32	-7	-4	4	0	1	2	0	1473868281945
-21	-37	-6	-10	-2	-4	5	-11	1473868281942
40	29	-4	1	-4	-4	-6	12	1473868281947
20	-11	0	-1	-2	-3	3	-28	1473868281985
-46	-13	-16	-6	-2	-1	-3	-43	1473868281990
66	66	20	3	1	7	10	35	1473868281985
5	8	30	15	8	-1	-5	-1	1473868281990
-40	-49	0	-1	1	0	-1	-7	1473868282032
22	4	-19	-13	-5	-3	3	8	1473868282037
-6	-85	6	9	8	-1	1	-2	1473868282032
7	-7	-5	14	2	0	2	-7	1473868282037
-22	-1	-8	-14	-1	-4	0	-8	1473868282034
11	60	11	11	-5	-3	-15	1	1473868282039
-11	-32	-20	-5	-3	-1	3	5	1473868282035
9	8	0	-8	-2	0	1	-3	1473868282040
-12	33	-2	-10	-2	-1	31	-25	1473868282079
19	15	11	-10	-25	-4	2	13	1473868282084
-34	-35	8	12	9	-16	5	-1	1473868282082
-11	-22	-1	30	53	24	2	2	1473868282087
-4	-2	-9	-11	-43	-8	-51	17	1473868282083
8	1	-9	-11	24	-10	42	6	1473868282088
12	17	17	2	7	14	-5	-24	1473868282129
-8	10	15	10	-4	4	7	-16	1473868282134
-2	-21	-32	-39	-60	-14	-46	16	1473868282130
2	8	16	-7	-23	-20	23	-5	1473868282135
14	15	9	15	24	0	13	3	1473868282175
-14	-29	-11	-19	-15	-23	-19	-2	1473868282180
-26	2	4	29	23	6	14	-31	1473868282175
8	4	-12	-1	-60	-32	-26	25	1473868282180
17	13	-11	-14	58	-9	52	29	1473868282180
-7	5	8	39	-4	52	3	-8	1473868282185
-1	2	2	-14	6	-22	18	-5	1473868282221
-2	-2	-6	-33	-35	-2	-29	-32	1473868282226
-5	-36	16	-23	-32	-7	-14	9	1473868282222
22	26	28	31	3	-11	-9	-3	1473868282227
4	3	-85	-11	-8	10	3	2	1473868282223
12	3	-3	-65	-23	-15	4	-5	1473868282228
-20	-13	73	38	-5	-1	-14	-4	1473868282269
-4	-1	-18	8	42	16	3	3	1473868282274
6	8	49	-19	0	13	-9	4	1473868282270
-31	-12	85	9	-38	-14	-2	-5	1473868282275
-2	30	30	-5	11	4	4	1	1473868282270
2	3	45	2	54	7	4	3	1473868282275
18	-12	-34	-28	-22	-17	-12	2	1473868282271
0	-5	-65	-41	-14	55	19	2	1473868282276
-13	6	102	46	-8	-94	-59	-22	1473868282317
21	25	-8	7	-2	99	98	30	1473868282322
-15	-47	-67	-83	-14	47	-28	-7	1473868282317
13	24	19	-14	-13	-24	-7	-1	1473868282322
-7	22	-21	1	-20	-5	-31	-5	1473868282319
1	-14	-58	-5	-9	-16	12	8	1473868282324
22	3	-86	23	28	-8	-26	7	1473868282321
-11	10	-11	-2	-8	1	-2	-12	1473868282326
11	30	2	18	6	-29	-37	8	1473868282367
-1	-7	3	-11	-13	36	13	-5	1473868282372
-4	4	58	-18	-3	7	23	-1	1473868282367
-5	-16	27	6	2	-28	-33	-8	1473868282372
4	17	61	26	12	10	13	0	1473868282412
6	13	-6	5	-5	-17	7	7	1473868282417
21	86	113	42	25	25	41	-1	1473868282460
-36	-57	54	-6	-27	-42	-31	-21	1473868282465
15	13	-91	-17	-3	9	-10	8	1473868282463
-7	-40	-12	-18	-8	0	40	-6	1473868282468
5	15	23	10	9	3	9	10	1473868282463
5	4	-21	-3	1	-3	-16	-8	1473868282468
-19	-77	-101	-16	-26	-9	5	15	1473868282508
9	61	-14	-10	3	-21	-29	1	1473868282513
9	-14	-11	20	16	19	9	-9	1473868282510
8	58	34	17	0	-5	-20	6	1473868282515
31	70	57	7	-10	-2	14	9	1473868282511
-31	-96	-73	-59	-45	-16	-13	-13	1473868282516
20	31	56	20	16	10	2	-8	1473868282556
-33	-35	-81	-6	-7	-3	-9	1	1473868282561
-53	-46	80	-8	-14	-11	-31	61	1473868282556
69	-1	-54	-14	4	2	15	7	1473868282561
-105	14	-27	17	8	5	0	-55	1473868282557
13	-71	26	-7	-8	-1	8	4	1473868282562
-44	-35	-2	3	7	2	7	-23	1473868282604
-22	39	96	-8	-6	-4	-17	1	1473868282609
36	-32	84	20	3	0	11	-12	1473868282604
-28	30	-68	-49	-15	-4	-20	-8	1473868282609
1	7	127	16	1	-4	8	-29	1473868282697
-68	-35	5	-11	-7	-11	-36	17	1473868282702
-28	101	-88	-6	-7	-1	15	13	1473868282745
8	-69	-58	-3	4	-2	-10	-41	1473868282750
13	67	-21	6	-20	-1	-15	6	1473868282746
26	59	45	18	35	7	25	33	1473868282751
29	-49	36	-21	-54	-10	-28	-45	1473868282747
-64	-6	38	-1	68	7	24	-3	1473868282752
22	-25	59	28	24	36	0	17	1473868282749
14	-20	-84	-6	-9	0	1	-12	1473868282754
-9	-96	-44	1	8	-17	-27	14	1473868282792
26	54	-92	-31	-16	-6	20	6	1473868282797
-3	22	-45	-3	8	-5	-13	8	1473868282792
6	-10	-11	-5	-9	-2	0	12	1473868282797
18	5	99	0	-12	-3	-2	-7	1473868282793
-20	-73	-40	-17	0	4	4	-3	1473868282798
-12	40	27	-7	4	-2	2	-1	1473868282839
30	18	56	41	13	-1	-3	14	1473868282844
-24	16	-3	-11	-12	-8	-18	-8	1473868282841
44	54	31	34	-5	2	11	11	1473868282846
1	28	4	7	-4	0	0	1	1473868282842
-4	-44	26	-5	-11	-4	-8	5	1473868282847
-13	-29	-37	-3	7	2	-2	-11	1473868282843
-6	48	36	-8	-10	-5	-2	-3	1473868282848
-1	-2	31	2	-4	-6	-7	1	1473868282888
-8	-22	29	-5	-11	-4	-2	0	1473868282893
0	-2	-66	-17	-7	-5	-7	-9	1473868282890
8	28	47	15	10	2	-20	1	1473868282895
-10	-39	-19	4	1	3	36	10	1473868282935
2	0	-19	-14	-11	-6	-3	-2	1473868282940
16	6	91	27	9	4	22	10	1473868282935
-16	-66	-104	-47	-11	-5	-4	-5	1473868282940
-2	28	70	10	0	0	-1	-3	1473868282935
1	-36	6	-27	-10	-3	-11	-1	1473868282940
-7	10	14	16	0	-6	-22	-16	1473868282937
4	-6	0	12	-3	0	0	-2	1473868282942
4	45	117	-6	-31	-8	13	1	1473868283031
1	-13	57	-11	-3	-10	-3	1	1473868283036
2	-8	-43	19	57	10	-1	-10	1473868283034
-5	0	32	28	5	22	-19	1	1473868283039
6	0	-8	15	5	7	7	7	1473868283034
-3	3	-34	-23	-25	-19	4	-5	1473868283039
-6	13	-40	6	47	-16	7	4	1473868283078
-1	-5	36	18	11	-6	0	-2	1473868283083
4	10	-18	-40	-56	35	25	2	1473868283079
3	7	33	3	5	-35	-14	-5	1473868283084
2	1	-8	31	29	41	15	10	1473868283080
-1	-11	67	-13	-11	-10	3	-1	1473868283085
1	-7	-48	0	-21	-14	7	0	1473868283127
-2	3	15	-11	-7	-1	-12	-3	1473868283132
-8	-5	-19	-14	2	2	4	2	1473868283127
7	0	15	16	18	3	2	-1	1473868283132
-2	-2	-6	-3	-31	1	7	-3	1473868283173
-3	0	-14	0	15	-16	-4	-2	1473868283178
-8	34	7	0	-11	-12	-4	-2	1473868283174
-5	-11	4	5	14	0	-2	-5	1473868283179
-4	-4	-10	-3	-1	2	-4	-3	1473868283174
-4	-17	-8	-7	-9	0	-10	5	1473868283179
5	1	-3	-2	-6	-6	5	-7	1473868283175
0	-1	-10	-8	6	-3	-3	-2	1473868283180
-1	2	31	-5	-12	-9	-9	-2	1473868283220
-7	2	-54	8	4	-8	0	-6	1473868283225
0	4	22	6	-1	-23	-40	-5	1473868283220
-7	-15	-23	-12	-1	17	23	-3	1473868283225
-4	0	-5	-22	-5	-1	-11	-2	1473868283223
2	0	16	0	2	9	9	1	1473868283228
0	3	-14	-4	2	-2	4	3	1473868283224
3	7	29	24	6	-11	-25	-2	1473868283229
1	-7	27	18	-1	17	28	3	1473868283270
-1	2	-8	-28	1	-16	-8	-4	1473868283275
-6	-12	-31	-39	-23	-63	-58	-11	1473868283272
13	9	45	6	6	80	59	18	1473868283277
-1	-5	29	4	-3	-59	-47	-2	1473868283314
-4	1	71	32	8	43	40	0	1473868283319
4	4	54	42	10	18	19	5	1473868283315
-1	7	60	3	-14	-16	-16	-6	1473868283320
-7	-15	-96	-5	-12	-26	-25	-3	1473868283316
4	10	72	2	6	-4	7	0	1473868283321
0	14	18	-36	-10	35	37	5	1473868283319
-2	3	15	-5	-6	-21	-20	-5	1473868283324
2	4	3	14	20	53	44	5	1473868283363
2	3	58	22	7	15	9	4	1473868283368
-6	-7	-35	-8	-50	-13	1	-8	1473868283364
5	15	71	-9	50	10	0	6	1473868283369
-7	-9	-84	-7	21	1	-5	2	1473868283365
-2	-9	7	5	-2	7	23	-4	1473868283370
4	14	-10	-2	1	10	19	4	1473868283411
0	-2	6	-1	-3	-4	-5	-2	1473868283416
4	2	9	7	12	10	10	3	1473868283413
2	12	72	11	-1	-11	-35	-6	1473868283418
-16	-47	-79	-41	-11	-9	14	-14	1473868283414
3	5	47	6	2	5	3	11	1473868283419
4	3	64	5	8	11	26	5	1473868283457
-10	-24	-90	-29	-16	-49	-20	-8	1473868283462
-3	-10	-64	-41	-30	-6	9	-2	1473868283458
3	3	67	19	10	-3	6	2	1473868283463
-3	-3	-51	8	15	-16	-11	-8	1473868283459
-1	3	-9	10	-7	-1	3	-2	1473868283464
5	9	40	13	-3	4	-18	8	1473868283460
-5	-14	-37	-16	-7	-1	3	-4	1473868283465
0	9	11	15	-1	1	1	0	1473868283506
4	6	-9	34	23	0	2	-1	1473868283511
-1	-5	-4	9	3	1	1	-2	1473868283506
-3	-7	-23	-13	-8	2	2	-2	1473868283511
4	15	34	-24	-9	-2	-2	0	1473868283552
0	3	-13	23	-2	-2	0	-3	1473868283557
0	1	-10	-3	4	-4	-3	-1	1473868283554
-2	2	12	-8	-15	-3	-5	-3	1473868283559
-3	1	9	1	-10	-2	-4	-1	1473868283554
3	-2	-9	-22	-1	-1	4	2	1473868283559
-4	-1	12	10	7	0	-1	-3	1473868283556
0	-3	-12	-15	-9	-3	0	0	1473868283561
-4	1	3	3	-4	-2	-3	-2	1473868283599
-4	-4	-6	-11	-1	6	2	-3	1473868283604
1	3	-5	-3	-6	-5	-3	0	1473868283601
-1	-2	7	8	-1	-2	-5	-13	1473868283606
0	0	1	-4	3	2	2	-3	1473868283603
-2	-1	-13	-14	-6	-5	-4	-2	1473868283608
-2	3	16	12	-2	-14	-3	-9	1473868283603
-11	-5	-4	-7	-1	17	0	12	1473868283608
3	-2	-2	-1	4	0	14	9	1473868283648
-12	8	-1	-3	-6	-2	-4	-6	1473868283653
6	3	9	1	-1	0	-11	7	1473868283648
5	-20	-11	-5	-2	-7	-12	-6	1473868283653
-5	20	0	1	2	3	-5	0	1473868283694
0	-5	-5	-1	0	-3	9	-5	1473868283699
2	-9	-5	-2	-6	-5	-5	0	1473868283695
-4	-13	5	-4	0	0	-6	-2	1473868283700
-3	1	-2	0	1	6	1	-4	1473868283695
5	3	-4	0	1	0	5	3	1473868283700
-8	1	7	-1	-1	-8	-3	-4	1473868283698
2	2	-7	-9	-6	3	-5	-4	1473868283703
8	-3	-3	0	-3	0	1	4	1473868283742
4	4	-4	-4	-3	-5	9	6	1473868283747
3	-5	-5	0	-2	-1	9	2	1473868283744
-1	7	4	1	-2	2	-6	-6	1473868283749
-3	1	-3	-4	-3	-10	-27	-8	1473868283744
-1	-6	-3	4	1	7	38	13	1473868283749
-3	-8	1	1	-5	-8	-23	-4	1473868283745
-7	2	-1	4	5	11	30	0	1473868283750
-5	-1	0	3	-1	2	-9	-3	1473868283793
0	-4	3	0	-1	-2	-1	-1	1473868283798
0	1	-3	-2	0	0	1	0	1473868283795
2	-1	-4	-1	-1	-6	-9	0	1473868283800
-5	2	3	2	4	5	12	-4	1473868283796
-2	-2	0	-1	1	-2	-4	-1	1473868283801
0	-3	-27	3	2	0	4	1	1473868283838
-4	-2	45	-4	-1	-2	-5	-4	1473868283843
-16	-76	41	6	-7	-5	-2	-1	1473868283839
-3	7	9	-4	-1	-4	-6	-2	1473868283844
-7	19	-32	-16	-4	0	2	-4	1473868283885
-2	-52	-10	2	3	1	-1	-3	1473868283890
-3	-8	12	3	0	-2	3	-2	1473868283931
0	14	-10	2	-2	-3	-6	-1	1473868283936
-2	13	2	-7	-1	2	0	-3	1473868283932
0	-15	-5	-1	-1	-1	0	1	1473868283937
4	18	3	0	-3	-1	0	2	1473868283933
-1	5	-6	0	-1	-1	-1	-1	1473868283938
3	9	-13	-7	-1	0	1	-1	1473868283935
-2	-4	-4	-4	-2	-1	-3	-4	1473868283940
-1	-7	10	3	0	-1	0	-1	1473868283980
-1	-3	-10	1	0	-1	-4	-2	1473868283985
-3	-6	-4	-5	5	-1	-1	-1	1473868283981
1	2	-12	-13	-3	-2	0	0	1473868283986
1	4	-6	2	2	-2	-1	0	1473868283983
1	-1	3	-9	4	1	0	1	1473868283988
-1	0	3	-13	11	-8	0	-2	1473868284029
-1	0	-2	4	-16	10	-1	-2	1473868284034
1	-1	-4	6	10	-8	1	-1	1473868284031
-4	2	-3	7	32	5	0	-2	1473868284036
3	-4	0	12	6	19	1	1	1473868284074
-1	1	2	-5	-4	-11	0	0	1473868284079
0	1	4	17	4	-1	-2	-1	1473868284075
-3	-7	-2	0	-99	-8	0	-1	1473868284080
0	-2	0	-1	84	-15	-1	1	1473868284076
-1	2	3	-6	37	30	2	-3	1473868284081
0	4	6	6	-13	2	3	2	1473868284077
2	-5	-3	-1	-1	-5	-2	-3	1473868284082
1	2	2	1	38	-21	-2	-1	1473868284124
-1	0	-5	23	42	21	2	-1	1473868284129
-3	1	15	-32	-65	-3	1	0	1473868284124
-3	-3	-13	-34	-2	-26	-7	-2	1473868284129
-1	-3	-7	-19	-31	-10	-1	-2	1473868284169
0	-4	-5	-28	-14	14	-1	-1	1473868284174
1	-4	4	7	-7	-1	-2	-3	1473868284170
-16	-10	-23	1	7	1	-1	-2	1473868284175
-8	4	4	-13	-6	-25	-1	2	1473868284171
19	4	2	31	27	29	2	1	1473868284176
-4	-2	-3	16	0	12	1	0	1473868284172
7	2	3	-20	-39	-17	-3	-2	1473868284177
4	1	-3	9	-30	11	3	-1	1473868284219
-11	-3	-5	9	-63	-34	-10	-5	1473868284224
-4	-10	-17	-62	-53	-41	-14	-7	1473868284219
-1	1	6	-33	-20	-17	-5	2	1473868284224
-3	-6	10	14	89	-14	6	-3	1473868284265
5	0	9	92	75	107	17	9	1473868284270
14	35	-3	-41	-72	-22	-12	-6	1473868284265
-36	8	-3	-23	-30	-52	-3	-5	1473868284270
-1	-22	-2	-29	16	28	-2	1	1473868284267
32	-9	8	21	26	10	-9	-3	1473868284272
-11	-21	-16	-16	-2	3	-4	-3	1473868284312
2	11	2	-10	-20	-17	-2	-3	1473868284317
-7	20	-1	-11	10	-6	-3	-5	1473868284314
-8	-1	0	9	17	4	1	-2	1473868284319
4	16	1	6	-12	11	0	1	1473868284314
0	-16	-9	-7	-5	-12	-3	0	1473868284319
2	-13	2	-4	2	0	-2	-2	1473868284316
-7	5	-2	7	7	5	0	-2	1473868284321
-1	-9	1	-2	4	2	3	2	1473868284361
15	11	0	-4	-4	-6	-6	-5	1473868284366
-13	-36	-5	-4	-6	0	-2	-5	1473868284362
-29	46	8	-2	2	-2	0	-3	1473868284367
11	-45	-4	1	3	5	1	-1	1473868284408
-4	-15	2	-2	-4	-4	2	10	1473868284413
-24	-15	-2	-3	1	-3	-5	-9	1473868284409
9	-15	2	1	3	1	1	0	1473868284414
-7	14	-3	-3	-5	0	-3	-6	1473868284409
5	5	-2	0	-1	-2	-2	1	1473868284414
-3	4	-2	-3	1	-1	0	1	1473868284411
2	6	0	4	1	-1	-1	0	1473868284416
5	-1	2	2	-1	1	1	14	1473868284456
-3	0	-1	2	0	1	1	-4	1473868284461
13	55	1	-3	-1	0	-2	7	1473868284457
-9	-9	-1	-2	-2	-2	-3	-8	1473868284462
8	-34	-5	0	-3	-2	-4	-3	1473868284458
15	74	3	2	2	1	2	5	1473868284463
5	-42	-2	-1	-2	-2	-4	-8	1473868284551
-7	42	2	2	1	2	3	0	1473868284556
1	-14	-4	-3	-2	-2	-4	-5	1473868284551
1	-56	-5	0	-1	1	1	10	1473868284556
14	30	6	0	-2	-2	-1	10	1473868284553
3	-12	-3	-2	-1	-3	-1	3	1473868284558
-11	9	0	0	1	1	0	-16	1473868284598
7	5	0	-1	0	-1	-4	14	1473868284603
-2	2	-1	0	-1	-1	0	2	1473868284599
-6	-2	-1	-1	-3	0	-1	-2	1473868284604
0	-1	-2	-1	-1	-2	0	3	1473868284599
-8	-1	-2	0	-1	-2	-1	-4	1473868284604
-1	5	2	9	40	14	3	-2	1473868284647
-1	-1	0	-3	-31	4	1	0	1473868284652
1	2	0	7	43	-7	-2	0	1473868284648
-1	0	0	-32	-10	13	1	-3	1473868284653
-6	-3	1	32	4	3	1	-1	1473868284693
-2	-2	-1	9	3	-7	-3	0	1473868284698
5	-3	2	6	-5	2	2	0	1473868284693
-1	7	-2	1	8	0	-3	-3	1473868284698
-6	-3	-4	-23	-34	-8	-3	-1	1473868284696
0	-3	-1	19	30	-2	0	-1	1473868284701
-5	-1	-2	-2	-2	9	2	-2	1473868284696
6	-3	-2	13	26	2	0	1	1473868284701
3	2	1	-3	67	10	1	0	1473868284742
6	9	2	38	21	22	4	2	1473868284747
-12	-16	-6	-3	-13	-9	-2	-4	1473868284745
-7	-9	-5	6	-60	-24	-10	-5	1473868284750
1	-5	-4	-28	-40	-56	-7	-2	1473868284787
6	0	4	-45	36	45	9	2	1473868284792
1	0	-1	15	-31	23	-3	-4	1473868284789
-10	-11	-4	-17	-34	-40	-5	-2	1473868284794
2	-2	-5	-22	-24	-18	-6	0	1473868284790
-1	7	-2	-13	-13	4	-2	-2	1473868284795
4	0	0	-12	2	-6	0	-2	1473868284790
1	2	0	22	22	1	-1	-2	1473868284795
-1	-1	1	-9	-9	1	0	-1	1473868284835
-2	-6	0	13	25	3	0	0	1473868284840
-1	-1	2	4	8	38	-1	0	1473868284835
7	-2	-1	-1	0	-10	2	3	1473868284840
-7	-1	1	-1	8	11	-1	-2	1473868284837
1	2	-3	-21	-24	-7	-3	0	1473868284842
0	-5	-6	-8	6	-26	-5	-1	1473868284838
3	-9	6	22	-1	11	1	-1	1473868284843
2	-3	0	-1	-1	-10	-1	-1	1473868284884
0	-6	5	13	-6	7	-2	-1	1473868284889
3	1	-6	-12	-2	-5	0	0	1473868284884
7	2	0	3	6	0	-2	-3	1473868284889
8	2	-1	-1	6	-1	0	0	1473868284933
-4	0	-1	-7	-12	3	-3	-3	1473868284938
1	-2	1	0	1	-4	1	-2	1473868284933
-9	-1	-1	-5	1	3	-2	-1	1473868284938
8	-1	-4	-1	4	8	0	2	1473868284933
-9	-3	1	-1	-5	-3	-1	0	1473868284938
-2	2	-1	-11	-5	-7	-2	-5	1473868284933
-2	-85	-5	8	4	-1	-3	-1	1473868284938
0	1	-4	1	-5	-7	-4	0	1473868284978
-10	-51	-2	1	-1	2	-2	-12	1473868284983
-4	23	0	4	3	0	0	4	1473868284978
-13	-25	-1	0	-4	-2	-5	-5	1473868284983
8	16	3	4	1	-2	0	3	1473868284980
-18	-49	0	9	0	-1	2	0	1473868284985
-6	-18	-5	3	2	0	0	-2	1473868285025
7	-23	-2	-3	-1	-2	-1	0	1473868285030
5	-21	3	1	1	-4	-3	-3	1473868285025
-3	38	4	-1	-3	-2	0	1	1473868285030
9	-35	-5	-11	-3	-3	-1	-2	1473868285122
-10	23	-4	-2	-3	-3	-2	-3	1473868285127
-3	12	1	2	0	-1	-1	-1	1473868285122
-2	11	-2	-11	-2	1	-1	2	1473868285127
-2	-25	-4	1	-2	1	-2	-4	1473868285122
2	2	8	9	-1	0	0	2	1473868285127
-3	16	-4	-5	-2	-1	-1	1	1473868285125
0	7	-4	0	2	-5	0	-3	1473868285130
0	-4	-3	-1	2	-1	-1	-1	1473868285168
0	4	1	-2	-3	-2	-3	-3	1473868285173
1	-1	-2	-3	-1	-3	0	0	1473868285168
5	3	0	1	-1	1	1	0	1473868285173
-4	-5	-1	0	-1	-1	-1	-2	1473868285215
-2	-4	-2	-3	0	-1	-1	-2	1473868285220
6	4	1	-2	1	0	-3	0	1473868285216
-3	1	1	1	-2	0	-1	0	1473868285221
-5	-2	-1	-2	2	0	1	-2	1473868285217
2	0	-3	-2	-1	-2	1	-1	1473868285222
-5	-1	-2	0	-1	0	-1	-1	1473868285219
4	0	-1	-2	-1	-1	-1	-2	1473868285224
14	-3	-3	0	0	-2	-1	-1	1473868285264
0	1	0	-3	-2	-1	-1	-2	1473868285269
-4	1	-1	-2	-2	-1	-2	-1	1473868285264
2	2	0	0	-1	2	0	-2	1473868285269
1	-2	-3	-2	-1	-1	-3	0	1473868285311
-2	0	-2	-1	1	1	0	1	1473868285316
0	-1	0	-1	-1	0	-1	-1	1473868285313
-2	-2	0	2	2	-1	0	-1	1473868285318
-5	-1	0	0	-1	-1	-1	-1	1473868285314
-3	0	-1	-1	-1	-2	-1	-2	1473868285319
1	-1	-1	1	-2	-1	0	-1	1473868285314
0	1	-2	-1	-1	-2	0	-1	1473868285319
0	-1	-1	-2	-1	0	1	1	1473868285358
-1	-1	-1	-1	-1	0	0	-2	1473868285363
-5	-1	0	-2	0	-1	-2	-1	1473868285360
0	-1	-1	-2	2	0	-1	0	1473868285365
1	-1	-1	-2	-17	0	-2	-2	1473868285361
-1	0	-1	0	10	-7	-3	-2	1473868285366
-1	-3	-2	-1	-6	-7	-2	-1	1473868285406
1	0	-1	-10	-5	-3	-3	-1	1473868285411
-2	-1	-1	1	-1	0	0	-2	1473868285407
0	0	-1	-1	-3	-2	1	-1	1473868285412
-6	-2	1	4	1	-2	0	-1	1473868285452
3	-1	0	-4	-2	-5	-1	-1	1473868285457
2	0	-1	-4	3	-4	-2	-1	1473868285452
0	-3	-1	-1	1	0	0	1	1473868285457
-5	0	-3	4	-2	2	-1	-1	1473868285453
7	-1	-2	-5	-1	-3	0	1	1473868285458
4	-2	-1	-1	1	0	-1	1	1473868285454
-20	1	0	0	-4	2	0	-3	1473868285459
2	-1	-1	0	-1	-2	-1	-1	1473868285502
-1	1	1	0	-1	0	-1	0	1473868285507
-6	-1	-1	-1	-1	-2	0	-1	1473868285503
4	-4	-3	-5	-2	-1	-2	-4	1473868285508
2	-1	-3	-3	-2	3	0	0	1473868285547
-4	0	-1	7	3	-4	-2	-1	1473868285552
2	-1	-1	-3	-6	-2	-3	0	1473868285548
-1	-1	-2	-5	0	2	0	-2	1473868285553
-13	-3	0	-2	-1	-2	-1	-2	1473868285549
2	2	0	1	2	0	1	1	1473868285554
-1	-1	-1	1	1	-3	-4	0	1473868285551
0	-3	-3	-3	-12	-4	-4	-1	1473868285556
-3	-2	-3	-5	-18	-6	-4	0	1473868285594
5	-1	-1	-33	1	-10	-2	1	1473868285599
-2	0	1	19	5	1	0	-1	1473868285595
-2	-3	-2	4	2	-10	-1	-1	1473868285600
2	-1	-3	-5	-1	15	1	0	1473868285597
-2	-2	-3	-13	-3	-14	-4	-3	1473868285602
-3	-4	-3	-9	-22	-1	-4	-2	1473868285598
1	-1	-1	-4	-17	-12	-3	-1	1473868285603
0	-1	0	-14	14	-5	-1	-1	1473868285692
0	1	1	14	23	21	6	2	1473868285697
1	2	2	4	7	-1	3	-1	1473868285692
-1	-2	-1	14	28	20	2	0	1473868285697
-4	-2	-3	-2	-32	-8	-4	-3	1473868285737
-1	-3	-4	-15	-13	-19	-6	-3	1473868285742
0	2	14	5	3	11	0	0	1473868285737
-2	-2	-31	-4	-1	-1	-1	-1	1473868285742
-2	-2	-40	-11	-3	-2	-2	-1	1473868285738
-1	4	-7	-16	-11	-6	-3	-1	1473868285743
-2	3	-2	8	-11	-12	-2	-1	1473868285740
-1	0	32	9	0	3	-3	-1	1473868285745
0	-8	7	6	6	1	0	0	1473868285785
-1	-5	6	9	4	4	1	1	1473868285790
0	-1	5	-2	31	-6	-3	-2	1473868285785
1	1	-4	16	-11	13	1	0	1473868285790
1	1	22	2	13	5	4	0	1473868285786
-2	-2	-5	-6	-12	-2	-2	-2	1473868285791
-2	-4	-23	-4	-18	-9	-3	-2	1473868285833
0	3	11	-5	3	-12	-3	-1	1473868285838
-1	-3	-40	-10	-7	-2	-4	0	1473868285837
-4	1	22	8	-2	-5	-2	-1	1473868285842
-2	-6	-26	-16	-5	-5	2	0	1473868285837
2	5	23	1	-1	5	2	1	1473868285842
-4	-5	-20	-7	4	-3	-3	-2	1473868285837
0	-1	-1	7	8	4	-1	0	1473868285842
1	5	26	7	-9	0	2	0	1473868285883
0	-3	-11	-5	18	0	-1	-2	1473868285888
-2	-2	1	-2	-11	8	-3	-2	1473868285883
-1	-1	-17	-5	-15	-13	-3	-2	1473868285888
0	-1	14	1	16	0	1	0	1473868285883
-1	1	15	0	-8	11	0	-1	1473868285888
-1	3	17	2	9	21	3	-1	1473868285931
0	2	6	6	7	4	1	0	1473868285936
0	1	38	13	3	-3	0	0	1473868285932
-1	-4	-35	1	-11	11	-1	-2	1473868285937
-4	1	66	-5	-9	-17	-6	-3	1473868285932
-1	-6	-100	4	-7	-6	-2	-2	1473868285937
-5	-9	29	-15	-11	-3	-5	-5	1473868285976
-1	-5	3	13	9	-7	-3	-1	1473868285981
1	0	-13	-6	14	0	2	1	1473868285976
-2	-5	-16	-12	-22	-4	-1	-2	1473868285981
-1	-6	-13	-2	-24	-10	-4	-2	1473868285976
2	4	17	-1	4	-13	1	-2	1473868285981
2	3	-15	-4	46	26	6	1	1473868285978
-1	3	19	9	-32	2	0	0	1473868285983
-4	-8	-13	-24	-35	-11	-8	-5	1473868286024
0	-1	1	1	-10	-18	-1	0	1473868286029
0	5	35	28	70	4	2	1	1473868286024
1	0	-24	-9	-2	27	1	1	1473868286029
0	2	-36	2	-31	-14	0	1	1473868286069
1	1	29	2	23	-3	5	2	1473868286074
6	42	13	1	-4	11	0	2	1473868286073
-6	-47	20	-7	-35	-18	-6	-1	1473868286078
-1	-5	-9	-5	-20	-23	-5	1	1473868286073
0	2	-5	-18	-1	10	-3	-2	1473868286078
2	1	6	-3	-1	-2	3	1	1473868286074
2	24	0	10	13	3	-2	0	1473868286079
0	-18	-6	-1	-7	0	1	0	1473868286118
2	-7	-6	-4	-13	3	-1	0	1473868286123
-4	25	1	-8	-15	-3	-3	-4	1473868286118
-11	-7	24	-1	-38	-23	-3	5	1473868286123
28	-11	1	-8	36	18	7	-5	1473868286119
-7	14	43	32	28	19	2	6	1473868286124
-13	-18	-38	-26	-29	-19	-7	8	1473868286121
0	6	3	-6	-23	-15	-3	-4	1473868286126
1	21	-18	-11	-26	-9	-6	-19	1473868286211
-20	-47	-22	-5	-2	-7	-2	-18	1473868286216
-7	105	10	9	4	-1	1	35	1473868286212
-9	-46	30	4	13	13	0	6	1473868286217
38	35	-43	5	-10	-1	-1	-7	1473868286214
-10	57	-2	-10	-3	-4	-3	-16	1473868286219
17	-16	19	-1	-5	-6	-1	9	1473868286259
-6	-29	11	-1	12	2	-2	-13	1473868286264
4	13	2	9	-5	2	3	-19	1473868286260
0	-62	-29	-9	20	-13	1	9	1473868286265
31	54	11	11	4	7	6	3	1473868286260
9	56	20	21	6	3	5	3	1473868286265
-3	-18	-7	9	2	-2	0	-3	1473868286262
15	64	-6	-10	-9	0	-3	14	1473868286267
-20	-52	-63	-22	-11	-13	-12	-25	1473868286308
-36	43	-14	-10	-3	3	-3	20	1473868286313
7	14	84	8	6	-2	-3	-4	1473868286308
-20	11	-71	-21	-9	-1	-8	-8	1473868286313
-11	-37	6	-4	11	-3	-4	-10	1473868286308
19	27	20	7	5	12	0	2	1473868286313
-5	3	14	5	-12	-1	0	7	1473868286310
8	-2	10	8	9	0	3	-4	1473868286315
-12	-27	-16	-2	-12	-4	-1	-2	1473868286355
23	80	-13	-8	-5	-5	-2	-4	1473868286360
-8	-1	-25	0	1	-3	-1	-8	1473868286356
-2	14	-8	-3	-5	-4	0	-4	1473868286361
-1	50	12	-5	3	1	2	3	1473868286356
2	-15	-30	7	0	2	-2	-1	1473868286361
-13	-25	-22	-11	-5	-2	-3	-10	1473868286358
5	30	13	3	4	2	-1	-2	1473868286363
-3	1	-20	-3	4	12	0	-5	1473868286450
-4	-4	-9	-15	-11	-4	-4	-5	1473868286455
2	0	-7	1	-7	-8	-4	0	1473868286452
-1	8	8	-1	9	3	0	1	1473868286457
0	-30	-5	6	-1	-1	1	0	1473868286454
3	-17	-34	3	2	0	-1	3	1473868286459
0	-9	8	2	-3	-3	0	0	1473868286496
-6	-19	10	-3	-15	-4	-1	13	1473868286501
-6	-12	2	-2	-3	-2	-1	-2	1473868286499
2	49	-37	3	6	4	2	-2	1473868286504
3	-1	-1	0	4	-3	-2	3	1473868286501
3	52	-24	4	6	4	4	-1	1473868286506
0	-15	-3	2	0	-2	0	-1	1473868286546
-1	-12	18	-7	-6	-1	-1	-4	1473868286551
-1	7	-36	-6	-1	0	-2	1	1473868286547
-4	-94	-14	3	4	0	0	-2	1473868286552
-2	25	72	8	-1	2	-2	0	1473868286548
-1	3	18	4	1	-10	-3	-1	1473868286553
-3	-43	-26	-5	5	5	1	-2	1473868286593
0	-3	-6	10	-1	-2	-3	-2	1473868286598
0	7	20	-12	-3	-11	-1	-1	1473868286594
1	8	9	-11	-7	4	-1	-1	1473868286599
-18	-41	2	19	5	4	0	2	1473868286595
18	-32	16	-35	-10	-3	-6	-14	1473868286600
2	13	27	-41	-8	-4	-4	-3	1473868286688
3	34	22	-4	-2	-1	-1	-4	1473868286693
-15	-2	21	-4	-7	-6	-5	-2	1473868286689
33	10	11	-8	-1	3	4	19	1473868286694
-28	-9	-76	-3	3	-1	1	-7	1473868286689
-8	7	63	2	-3	2	2	10	1473868286694
-10	-2	28	-12	-13	-3	4	-4	1473868286691
4	-2	-30	-10	-7	-1	2	1	1473868286696
-4	-6	2	3	6	-4	-4	-4	1473868286735
-7	-5	15	5	0	-1	-1	-6	1473868286740
3	29	79	-8	-3	-1	0	1	1473868286737
-5	-36	-23	14	-5	-5	-3	1	1473868286742
-8	-23	38	4	-2	-1	-3	-3	1473868286738
2	4	-53	-9	0	-1	-1	-6	1473868286743
-12	-13	-27	-2	-4	-4	-3	-6	1473868286783
1	2	-15	-3	0	-1	-1	-3	1473868286788
-8	2	-33	-1	-2	-6	-8	-5	1473868286785
1	1	20	2	1	1	13	-9	1473868286790
1	-3	-13	2	4	6	-2	17	1473868286829
-3	-2	-2	2	1	-5	-7	-2	1473868286834
4	-1	-29	4	2	-5	-4	6	1473868286830
-9	7	60	-7	-4	0	-9	-7	1473868286835
-1	3	-17	0	0	0	-3	-13	1473868286831
1	-17	-67	-16	-6	-3	-4	10	1473868286836
12	21	19	4	0	-3	-1	-1	1473868286833
-12	6	23	2	3	-1	0	0	1473868286838
0	-28	-21	-7	-4	-7	-3	0	1473868286878
2	18	34	6	4	0	0	-3	1473868286883
2	-7	-43	-3	-3	-1	0	-1	1473868286878
1	-2	50	1	1	-2	-2	1	1473868286883
-11	-30	-73	-10	-4	-4	-4	-14	1473868286924
2	19	5	-1	-2	2	1	6	1473868286929
-4	12	-6	-2	1	-1	2	-2	1473868286924
-3	-10	-13	-2	-5	-3	-6	-2	1473868286929
0	8	20	3	2	0	1	7	1473868286925
2	19	32	1	-4	-2	-1	-5	1473868286930
-12	-26	-54	-12	-3	-4	-4	-5	1473868286927
1	20	3	-1	1	2	0	7	1473868286932
1	2	65	5	-1	0	0	5	1473868286975
-3	-4	-64	-4	1	1	1	-8	1473868286980
3	-30	7	-2	-2	-5	-7	-7	1473868286976
-6	23	6	-18	-6	-4	-3	-7	1473868286981
-9	2	-30	16	10	4	3	-2	1473868286976
-9	-8	-7	-3	-2	-2	0	-1	1473868286981
16	28	-3	3	1	0	0	-4	1473868287021
-16	-42	6	-1	-2	-1	-3	-9	1473868287026
9	27	10	3	1	2	1	7	1473868287021
2	-25	-12	4	2	1	0	-8	1473868287026
-6	27	12	-3	-2	-2	1	1	1473868287067
5	3	-13	2	3	2	6	-3	1473868287072
6	-11	-26	-4	-2	0	0	-1	1473868287070
2	-17	-17	-1	0	1	4	2	1473868287075
9	23	24	1	-1	-1	-1	-2	1473868287070
-1	44	-11	0	-1	0	-1	-2	1473868287075
4	-16	-21	-3	0	-1	1	0	1473868287070
-6	-23	-69	-8	-6	-6	-6	1	1473868287075
1	-11	13	4	2	2	4	3	1473868287116
5	15	-15	-3	-1	-2	0	9	1473868287121
-11	4	0	1	-2	-5	-12	-34	1473868287116
18	30	58	10	5	-3	-1	15	1473868287121
-6	-16	-59	-6	-2	9	14	-5	1473868287162
-7	-8	30	1	-1	-3	12	-5	1473868287167
2	-18	-19	-3	-1	-4	-13	-2	1473868287163
-9	8	22	-1	-1	-2	11	9	1473868287168
10	-18	-5	5	3	1	9	0	1473868287165
1	0	-22	-10	-7	-6	-23	-6	1473868287170
-9	-3	5	-5	-4	-4	-6	-2	1473868287209
-3	-27	-22	-4	-2	-1	-9	-11	1473868287214
7	-23	-73	-7	-3	-4	7	-7	1473868287210
10	42	51	-1	-4	-1	1	-8	1473868287215
-20	-36	-39	-3	0	1	3	33	1473868287213
4	15	6	2	-1	-1	-13	11	1473868287218
4	-17	-10	-4	0	-1	12	-4	1473868287213
-7	-7	32	-1	-1	-6	-22	-46	1473868287218
11	24	39	7	3	-3	-8	0	1473868287305
-7	-8	-15	-4	-4	-5	-22	-12	1473868287310
3	12	-11	-3	-4	-1	1	-11	1473868287307
-8	-9	2	0	1	1	-4	12	1473868287312
-9	-23	-9	-2	0	0	16	-10	1473868287352
7	5	-10	3	-1	-2	-6	-1	1473868287357
0	9	-9	1	-1	-3	-10	1	1473868287352
-5	-6	-8	1	-2	-2	0	3	1473868287357
-8	-11	-31	-4	-2	-2	-2	1	1473868287352
23	4	11	-8	-4	-5	9	16	1473868287357
-13	9	22	0	1	5	-3	-10	1473868287355
-1	-19	-26	-5	-4	-1	-4	-4	1473868287360
-6	4	4	3	-2	-3	-2	-3	1473868287399
-3	-6	3	-1	-5	-13	-6	-4	1473868287404
-6	-3	-6	-3	-2	2	-3	-8	1473868287400
19	22	38	5	0	0	-2	0	1473868287405
-23	-6	-1	-7	-4	-3	-4	4	1473868287401
-20	-17	-34	-4	-2	-2	-4	-18	1473868287406
-2	7	6	0	0	-5	-2	-9	1473868287447
-8	0	-6	-3	-4	-3	-4	-4	1473868287452
-5	-3	-7	-2	-1	-3	-3	-14	1473868287449
16	-4	-15	-1	-2	0	1	-4	1473868287454
2	6	-3	-2	-2	2	0	-2	1473868287449
6	5	21	-3	-3	-4	-3	4	1473868287454
17	1	-1	0	1	-1	-1	10	1473868287450
-22	0	10	4	3	5	12	-6	1473868287455
2	-2	14	-1	-1	0	1	1	1473868287494
-5	-7	-4	-4	0	-1	-2	-3	1473868287499
9	0	-4	1	0	-7	3	0	1473868287498
-9	1	0	-1	-2	2	-2	7	1473868287503
6	4	1	0	0	-2	-4	7	1473868287498
10	-5	2	-1	-1	5	-3	-4	1473868287503
5	-2	11	0	0	-1	1	-2	1473868287542
-11	5	8	0	-2	-2	1	-1	1473868287547
8	0	-1	4	2	2	0	-1	1473868287545
5	8	-4	1	1	0	-2	-1	1473868287550
-8	-11	-4	-1	-1	-1	-2	-1	1473868287547
7	14	11	-1	-3	0	1	-6	1473868287552
-8	-19	-16	-13	-6	-1	-3	3	1473868287592
6	-1	8	-1	2	0	-4	-13	1473868287597
-4	9	12	0	-2	-2	-2	-6	1473868287592
-8	-1	-3	-3	-6	-3	-4	4	1473868287597
1	-3	-11	-1	1	-3	-2	1	1473868287594
-5	-1	0	-4	-1	-2	-1	-9	1473868287599
-8	1	11	-1	-3	0	-1	-6	1473868287594
-9	-8	-15	-2	-2	-2	-2	4	1473868287599
5	6	-4	2	0	1	0	-1	1473868287638
0	-5	2	-1	0	0	-1	1	1473868287643
-5	4	8	2	0	-3	0	1	1473868287639
13	-4	-2	-2	-2	-5	-3	-9	1473868287644
-35	-4	8	-3	-2	3	-2	-6	1473868287684
9	1	7	2	1	2	1	-4	1473868287689
6	-3	2	-2	0	-5	-3	0	1473868287684
18	1	1	2	1	4	4	3	1473868287689
-16	-6	-6	-1	-1	-2	-3	1	1473868287687
4	1	3	-4	-3	-2	3	-7	1473868287692
5	-1	-7	0	0	-4	-1	0	1473868287689
-5	-6	2	1	1	0	-1	-5	1473868287694
11	1	-1	-10	-3	0	-1	1	1473868287733
-8	-1	0	4	5	-1	1	4	1473868287738
3	-6	-9	2	0	-2	-3	11	1473868287733
-6	8	20	-4	-1	-1	-2	-18	1473868287738
4	-3	-2	-3	-1	-2	0	4	1473868287780
6	-4	-10	-1	-1	0	-1	6	1473868287785
-9	-1	-2	0	-1	0	-3	-9	1473868287781
-6	6	2	2	1	1	2	5	1473868287786
15	2	4	1	1	0	0	-4	1473868287783
-31	0	1	-1	-2	-3	-2	-6	1473868287788
8	2	9	-2	1	0	-1	-3	1473868287826
1	-7	-17	-2	-3	-1	-1	3	1473868287831
11	3	-8	0	-1	0	1	-3	1473868287828
5	2	10	-1	-2	-1	0	26	1473868287833
-3	1	7	-2	-2	-1	-4	-20	1473868287829
-8	1	11	2	4	1	-2	1	1473868287834
15	-6	-14	-4	-2	-4	-1	-3	1473868287874
-4	-3	-3	-4	-2	0	0	-5	1473868287879
-10	-2	3	3	1	-1	0	-3	1473868287874
16	0	1	0	-4	-1	0	2	1473868287879
-4	-1	0	-10	-5	-1	-3	1	1473868287875
1	-3	-1	4	4	-1	-1	-3	1473868287880
-3	0	-2	3	1	0	-1	2	1473868287877
-17	1	-8	-1	-3	-5	-2	-3	1473868287882
1	3	-3	2	-1	0	0	4	1473868287922
2	-7	-10	-3	-4	-3	-2	0	1473868287927
2	3	3	0	2	0	-1	-2	1473868287922
-4	2	2	-2	-1	1	0	-4	1473868287927
-3	0	-7	1	1	0	2	4	1473868287924
-3	1	15	2	1	-2	-1	-3	1473868287929
12	-3	-4	-5	-5	-7	-2	0	1473868287983
1	-2	-7	-1	1	8	2	-3	1473868287988
8	-4	6	0	-2	0	1	3	1473868287983
-22	1	6	2	1	-2	-2	-3	1473868287988
-7	-2	-6	0	0	-1	-1	-5	1473868287984
0	1	1	-1	-1	-3	-2	3	1473868287989
4	0	4	1	-2	2	0	3	1473868287984
-24	-8	-21	-6	-2	-2	-2	-4	1473868287989
0	-4	-5	-2	-3	0	-3	-6	1473868288017
4	-13	-27	-2	1	4	1	0	1473868288022
-15	0	7	1	0	0	-1	-6	1473868288018
4	0	-2	-1	0	0	0	-1	1473868288023
-10	0	-7	-3	-2	-4	1	1	1473868288064
4	2	14	0	-3	-4	-3	-5	1473868288069
-23	-3	3	2	0	-2	-4	-19	1473868288064
4	1	-3	0	-3	4	-1	3	1473868288069
0	-4	-12	-1	-1	-3	-2	-3	1473868288067
8	4	5	-4	-6	-3	-3	-1	1473868288072
3	1	4	-1	-2	-4	1	7	1473868288068
-1	-3	-4	-1	-1	-1	0	3	1473868288073
-21	1	1	-2	-3	-3	-3	-11	1473868288112
18	6	10	3	0	-1	-1	3	1473868288117
-1	-1	3	1	0	0	0	6	1473868288113
9	-3	-8	0	0	-1	0	6	1473868288118
-8	1	5	1	3	0	0	-5	1473868288115
14	-6	-14	-2	-2	0	-1	5	1473868288120
17	1	14	-4	-3	0	-3	1	1473868288115
-25	-4	-2	-1	-2	-2	-3	-10	1473868288120
5	-1	-3	-2	-3	-4	-1	2	1473868288162
-5	3	4	-1	-1	-3	1	-2	1473868288167
2	3	2	-2	-3	-2	-3	-1	1473868288162
2	-8	3	-3	-2	-2	0	1	1473868288167
-9	2	-4	2	2	4	0	3	1473868288207
13	-1	-4	0	-2	1	0	-3	1473868288212
-2	-3	-15	-4	-1	1	0	-3	1473868288207
1	1	15	1	1	1	-1	0	1473868288212
22	1	3	-1	-3	-3	-2	6	1473868288210
-47	-7	-14	-2	0	-4	-5	-15	1473868288215
-4	4	18	3	0	2	2	9	1473868288210
7	-3	-6	1	-3	0	2	-11	1473868288215
-6	-3	-5	0	0	-3	-3	-3	1473868288255
-9	1	12	-1	1	5	2	0	1473868288260
5	-8	-9	-2	-1	-3	-1	-2	1473868288256
4	2	4	0	0	0	1	-1	1473868288261
-7	0	3	-1	-2	1	-1	1	1473868288258
7	-3	-20	-1	-2	-4	-3	4	1473868288263
-5	0	3	-4	-2	-2	-3	-1	1473868288304
3	-2	-1	-1	-3	-1	-2	-1	1473868288309
1	4	2	1	1	2	0	-4	1473868288304
-2	5	13	1	0	-3	-2	0	1473868288309
-5	-1	4	1	-2	-2	0	1	1473868288350
7	7	9	-1	-3	-1	-1	0	1473868288355
-1	-11	-21	-2	-1	-1	-2	-4	1473868288350
-3	0	-7	0	0	-2	-1	2	1473868288355
3	-1	-8	1	0	-3	0	-1	1473868288350
-3	-3	-9	-14	-6	2	-2	-4	1473868288355
-2	2	15	6	8	1	-1	-1	1473868288353
3	-3	-4	1	2	3	2	1	1473868288358
-2	-2	-6	0	-2	-3	-2	-1	1473868288397
1	-3	-1	-1	-2	-4	-4	2	1473868288402
0	0	1	-2	-2	-3	-2	-3	1473868288400
0	0	8	3	-1	-1	-2	-3	1473868288405
-3	-3	-12	-6	-6	-2	-3	-1	1473868288400
-2	-6	-6	-2	1	-1	-1	0	1473868288405
1	0	14	-2	-2	0	-2	-1	1473868288445
-3	2	6	1	1	-1	-1	-2	1473868288450
-2	1	13	-1	-1	-3	0	-2	1473868288446
-10	5	-3	1	0	2	2	-1	1473868288451
17	-2	-2	2	1	-1	-1	2	1473868288447
-1	-3	-2	1	0	-4	-2	-1	1473868288452
-3	-5	-9	-4	-2	5	0	-3	1473868288447
4	-4	-5	-5	-4	-6	-3	2	1473868288452
-23	4	7	2	-1	0	-1	-6	1473868288493
0	-2	-1	0	2	-1	2	3	1473868288498
2	-3	12	-3	-2	-1	-2	-2	1473868288493
-1	-6	-6	-1	0	-1	-1	-2	1473868288498
-1	-3	-15	-1	-2	0	-2	-1	1473868288495
-2	6	17	0	-1	-3	-3	0	1473868288500
0	5	4	0	-1	-1	1	2	1473868288495
-1	-8	-9	1	1	1	0	-3	1473868288500
2	8	25	1	2	-1	-1	-1	1473868288542
-4	-5	-10	-4	-3	-1	0	-1	1473868288547
0	-2	-2	0	-1	-4	-2	-2	1473868288542
-1	3	7	2	1	5	0	1	1473868288547
-1	-3	-15	0	-1	-4	0	-4	1473868288588
-5	-3	2	-3	-2	-4	-5	-2	1473868288593
3	2	6	-4	0	0	2	-11	1473868288588
3	0	-2	0	3	-1	0	-4	1473868288593
-5	0	-2	-1	-3	0	0	-1	1473868288588
-5	-2	4	2	-1	0	-2	-2	1473868288593
1	-1	2	0	-1	1	0	1	1473868288591
-1	-4	-5	-1	-4	-3	-2	-1	1473868288596
-3	-5	-13	-3	0	-1	-2	-1	1473868288635
0	1	4	-3	-3	-1	-3	-3	1473868288640
2	3	10	1	-2	-2	-2	3	1473868288637
-6	-5	-7	-3	-1	-3	-4	-4	1473868288642
-3	3	13	1	1	0	1	3	1473868288637
-2	-2	-8	0	0	-1	0	-1	1473868288642
4	-4	-3	-4	-3	-1	-2	-4	1473868288637
-2	2	2	0	1	0	0	-3	1473868288642
5	5	-3	-1	-3	0	-2	2	1473868288683
-2	-2	7	-2	-2	1	0	-1	1473868288688
-4	1	3	1	-2	-2	2	0	1473868288684
0	-1	3	0	-1	-3	0	-1	1473868288689
7	-8	-30	-3	-1	0	-1	-1	1473868288685
-28	2	9	-3	-3	-1	-2	9	1473868288690
5	-6	-8	-3	-1	-1	-2	-6	1473868288730
-2	1	3	0	-1	-1	0	1	1473868288735
-5	-4	-7	-1	-1	-2	0	2	1473868288731
5	3	5	3	0	-1	1	2	1473868288736
-12	3	13	1	2	-1	1	0	1473868288733
12	-4	-8	0	0	1	-1	-4	1473868288738
-2	-6	-14	-1	-1	0	-2	2	1473868288734
2	1	-1	-4	-3	-3	-3	-5	1473868288739
-2	-1	4	0	0	-1	-3	-3	1473868288779
-1	-4	-3	0	3	-3	-1	2	1473868288784
-4	-5	-2	-4	-1	3	-1	-2	1473868288779
0	2	5	1	0	0	0	-4	1473868288784
2	0	1	-1	2	1	-2	-2	1473868288782
0	-2	-3	0	-2	-2	-1	-1	1473868288787
0	-7	-8	-3	-3	-4	-1	2	1473868288825
-2	-1	3	1	0	1	-2	-2	1473868288830
-2	-2	2	-4	-3	-3	-2	1	1473868288827
-9	3	0	-2	0	3	0	-5	1473868288832
8	-1	-10	-1	-3	-2	-1	0	1473868288829
15	0	4	0	-2	-1	0	3	1473868288834
-6	0	0	0	1	-2	-2	-16	1473868288872
-3	-3	-1	-2	-1	0	-1	0	1473868288877
-3	1	9	-2	-2	3	1	2	1473868288873
2	-3	-3	-1	-3	-3	0	-2	1473868288878
-3	4	0	-1	2	1	-1	-2	1473868288873
-3	-5	-2	-3	-2	-3	-2	-2	1473868288878
0	-3	-6	1	-1	0	-2	1	1473868288876
-4	-3	-3	1	1	1	0	-4	1473868288881
-3	-6	-17	-4	-2	-3	-3	-2	1473868288923
-4	0	-3	-1	3	-1	-1	-1	1473868288928
4	2	6	-1	-4	0	0	-1	1473868288923
4	-3	-4	-1	-2	-2	-2	3	1473868288928
-7	-2	-1	2	2	0	1	-1	1473868288966
0	-1	7	-3	-4	2	-2	-3	1473868288971
7	-2	-4	-3	-3	-3	-2	2	1473868288968
-8	1	2	1	0	-4	-1	-1	1473868288973
0	-1	6	2	2	0	1	2	1473868288968
-4	6	14	-5	-4	-4	-3	-6	1473868288973
-3	-3	-5	-1	-2	2	-2	5	1473868288970
4	0	-4	2	2	-1	-1	-1	1473868288975
-1	0	-2	3	0	-3	-1	1	1473868289015
-5	-3	-6	2	2	-1	0	-1	1473868289020
0	-1	-2	-1	-2	3	-2	-3	1473868289015
2	-2	-7	3	1	0	2	1	1473868289020
-9	2	5	-4	-5	-2	-1	-1	1473868289064
10	-1	1	-1	1	-3	-1	2	1473868289069
3	6	15	-2	-3	-1	-1	2	1473868289064
5	-7	-12	-1	-1	0	-4	-8	1473868289069
-2	5	7	2	1	-1	-2	-5	1473868289064
-5	-4	-10	-1	-1	1	0	6	1473868289069
5	-1	2	-2	-1	-1	-1	-2	1473868289064
-3	2	5	-1	-3	-3	-4	-1	1473868289069
-8	-1	1	0	-1	0	1	-3	1473868289110
4	3	2	-1	-3	-1	-3	-4	1473868289115
0	0	5	0	-1	-2	1	4	1473868289111
-2	-7	-16	-1	2	-2	0	-1	1473868289116
-1	-2	-3	-3	-2	3	0	0	1473868289157
-4	-3	-6	-7	-4	0	0	-3	1473868289162
-1	2	11	1	0	0	-1	-1	1473868289158
-2	-4	-4	-1	-2	1	1	0	1473868289163
-5	-4	-4	-3	-3	-2	-3	-1	1473868289158
11	0	5	1	-1	-1	-1	1	1473868289163
-19	0	5	-6	-3	-3	-3	-4	1473868289205
-2	0	-8	-1	0	0	-2	-1	1473868289210
-6	-1	3	0	0	-2	0	-3	1473868289208
-1	1	2	-1	0	3	-1	0	1473868289213
1	-2	0	1	0	-1	2	-2	1473868289208
-4	-2	0	0	1	2	-3	-2	1473868289213
3	-7	-11	-2	-3	1	-3	0	1473868289209
-3	3	7	1	-1	0	0	-1	1473868289214
-2	-1	0	1	3	0	-1	0	1473868289253
-3	3	2	2	-1	-1	-3	-3	1473868289258
-1	-5	-8	0	-1	-1	-1	-2	1473868289255
-4	0	-2	-2	-4	-2	-1	1	1473868289260
5	-8	-20	-6	1	-1	0	1	1473868289299
-4	3	5	-1	-3	-5	-1	-2	1473868289304
1	0	-2	1	-1	1	-2	4	1473868289300
-1	0	0	-1	1	1	0	0	1473868289305
-2	-2	-4	-1	-1	-1	-1	-1	1473868289301
1	-1	0	1	-1	1	1	1	1473868289306
0	2	3	-2	-3	-3	-3	-2	1473868289347
-2	-6	-14	0	0	1	0	-3	1473868289352
-2	1	-2	5	4	0	-2	-5	1473868289347
-2	0	0	1	4	0	2	0	1473868289352
-2	-1	1	-1	-1	-2	0	0	1473868289349
3	-1	-2	1	0	-1	-2	-3	1473868289354
-2	0	-5	-2	-2	-2	-1	0	1473868289351
12	4	5	-4	-3	-3	-1	2	1473868289356
-10	2	8	-3	-2	-1	-1	0	1473868289398
4	-2	-5	1	0	0	-1	-2	1473868289403
-5	-3	0	-1	-1	-3	0	0	1473868289398
-3	1	5	2	2	0	2	-2	1473868289403
3	-4	-11	1	0	-3	-1	2	1473868289443
-2	-2	7	1	1	2	0	-2	1473868289448
-2	-2	10	0	0	-3	0	-2	1473868289443
-8	-1	0	-2	-3	2	-2	-5	1473868289448
9	-2	-4	-9	-4	-1	-1	-4	1473868289443
-2	2	5	6	4	-2	-1	-1	1473868289448
-2	-4	-12	-2	-4	-1	-2	3	1473868289445
13	-3	-3	-1	-2	-2	-2	-7	1473868289450
2	-3	-6	-2	0	-1	-3	0	1473868289541
-7	1	0	4	1	-4	-1	-1	1473868289546
-3	-7	-19	-3	-3	0	-2	-3	1473868289541
3	1	5	-2	-2	-1	-1	-2	1473868289546
-4	-7	-16	0	1	-1	-2	-3	1473868289543
-2	-5	-7	-3	-1	-1	1	9	1473868289548
15	0	-2	1	-1	-3	0	1	1473868289587
-5	-1	-1	-1	-2	-2	-1	-4	1473868289592
2	3	10	0	-1	-1	-2	2	1473868289587
4	-3	-4	-3	-4	-2	0	5	1473868289592
-6	1	2	3	4	-1	0	-6	1473868289633
4	0	-3	-1	1	1	2	0	1473868289638
-6	-2	-2	4	3	1	1	0	1473868289634
19	1	3	3	1	-2	-1	-6	1473868289639
-2	-3	-6	-4	-1	5	0	5	1473868289634
-4	-2	1	-1	-1	-1	-1	-4	1473868289639
-2	-4	-2	-1	-2	0	-1	3	1473868289728
0	-2	-15	-3	-2	-1	0	-3	1473868289733
0	-7	-12	-2	-2	-2	-2	0	1473868289728
6	-1	3	-2	-2	-1	0	-4	1473868289733
-4	-1	-7	-4	-4	-4	0	0	1473868289728
-6	-2	2	-2	-1	-2	-2	-2	1473868289733
1	0	1	2	2	-2	-1	-1	1473868289729
-10	5	11	1	-1	2	-3	-5	1473868289734
-2	-5	-11	-4	-1	0	-1	-2	1473868289774
4	1	0	3	0	-1	1	2	1473868289779
0	1	-1	1	0	-2	0	0	1473868289778
-4	-3	-3	0	-2	-4	-1	-1	1473868289783
-7	-13	-22	-1	1	-1	-1	-2	1473868289779
-2	1	5	-1	0	-1	-2	-1	1473868289784
-9	-2	1	0	-1	-1	-1	-3	1473868289779
1	1	0	0	1	2	1	0	1473868289784
0	3	5	0	-2	-1	-2	-2	1473868289823
1	-4	-3	1	0	1	-1	-1	1473868289828
-4	-1	4	-2	-1	-2	-1	-1	1473868289826
3	-6	-26	-4	-3	4	0	0	1473868289831
-1	0	20	-1	1	-1	-3	-1	1473868289827
1	-7	-20	-1	-1	-1	-1	0	1473868289832
2	1	5	3	2	1	2	-1	1473868289872
0	1	4	3	1	0	0	-1	1473868289877
-4	-4	-18	-10	-6	-3	-3	0	1473868289872
0	4	0	0	-1	-3	-2	0	1473868289877
-1	1	1	-2	-3	-3	-4	0	1473868289872
5	63	15	4	3	-1	0	0	1473868289877
0	16	5	-1	-2	-1	1	-1	1473868289919
-1	17	12	3	4	0	1	1	1473868289924
-3	-17	-12	-2	0	2	1	-2	1473868289921
-1	-16	11	-2	-4	-3	-2	-1	1473868289926
-1	7	-12	-1	4	2	1	-2	1473868289964
-2	-12	-31	-4	-1	-1	-1	-2	1473868289969
1	1	-9	1	-1	1	1	1	1473868289967
-1	-10	-15	0	-2	-1	-3	-3	1473868289972
2	10	14	1	-3	-4	-3	0	1473868289967
1	0	-1	-1	-1	-4	-2	-1	1473868289972
0	2	4	0	0	5	-2	-2	1473868290012
0	-14	-14	2	0	0	1	-1	1473868290017
-5	1	-9	0	-2	-1	-3	-3	1473868290013
1	-8	-9	-1	-2	0	-2	-1	1473868290018
1	12	8	-4	-3	-2	0	-3	1473868290016
-6	-11	2	-3	-2	0	2	-2	1473868290021
-2	0	5	1	0	0	1	-1	1473868290155
3	-7	1	1	-2	-2	-1	0	1473868290160
5	19	-12	-3	-2	0	0	-1	1473868290156
-8	0	16	0	-2	0	-3	-4	1473868290161
3	-12	-6	-5	-2	-4	0	-1	1473868290156
-2	-7	-1	3	1	2	-2	-1	1473868290161
4	-10	5	4	2	-1	1	0	1473868290159
1	19	-4	0	0	-2	-1	-2	1473868290164
-5	-18	-27	-7	-3	-4	-3	-3	1473868290203
-2	0	14	0	-2	-2	-4	-2	1473868290208
0	-12	-20	3	2	0	2	1	1473868290203
-2	12	17	-2	-1	-2	0	0	1473868290208
-2	-7	-3	-2	-2	-3	-3	-2	1473868290206
1	4	16	3	0	-1	2	-1	1473868290211
-3	-4	9	-3	0	0	-4	-2	1473868290251
-3	-9	-13	-3	-3	-2	0	-1	1473868290256
-1	12	10	-2	-1	-1	2	-1	1473868290251
-2	-17	-28	-3	-1	-1	0	-1	1473868290256
4	56	1	2	1	2	0	0	1473868290253
-3	-22	-7	-3	-3	-1	-3	-1	1473868290258
0	-8	20	1	1	2	-1	-1	1473868290253
0	0	5	-12	-3	-1	-1	2	1473868290258
-1	-25	-14	-8	-4	-1	-1	-1	1473868290299
-2	4	-6	-4	-2	0	-2	-1	1473868290304
-1	-10	-12	-4	-4	-4	-2	-2	1473868290300
-1	-8	4	-2	-2	-1	1	-2	1473868290305
1	41	-5	-5	-2	-1	-1	1	1473868290345
-6	-37	-4	1	-2	-3	-2	2	1473868290350
0	-7	9	-6	-2	-3	-1	11	1473868290346
-3	12	-26	-2	-1	0	2	-2	1473868290351
-6	-42	-3	-1	0	-2	-3	-1	1473868290348
3	22	7	1	0	1	1	-1	1473868290353
0	-18	-5	0	-1	-3	-4	-3	1473868290349
-1	6	0	-1	-4	-1	-3	-1	1473868290354
2	16	0	4	0	-2	-1	1	1473868290394
0	-7	9	2	0	-1	0	3	1473868290399
-22	3	1	-5	-1	4	-1	-3	1473868290395
8	1	7	-2	-4	-6	-3	-2	1473868290400
-3	5	15	4	-1	-1	-2	-1	1473868290398
0	2	18	5	1	1	1	-3	1473868290403
7	-10	-9	1	-1	0	-3	1	1473868290442
3	6	3	-1	-5	-3	-1	1	1473868290447
-5	5	8	1	-1	-3	-2	-6	1473868290442
-9	-12	-23	-2	-1	0	-1	1	1473868290447
3	1	2	-1	-2	-3	-2	-6	1473868290444
2	-5	-3	-3	2	-1	-3	2	1473868290449
15	5	-5	1	1	0	-1	-9	1473868290491
3	-1	-1	1	-1	1	1	5	1473868290496
15	2	14	4	1	0	2	5	1473868290492
-24	6	-5	-13	-6	-1	-1	-10	1473868290497
2	-7	-4	4	2	-3	0	-1	1473868290493
3	0	-3	1	0	-2	0	6	1473868290498
-15	1	11	-1	-1	-2	-1	-16	1473868290493
25	-8	-6	0	1	0	1	-3	1473868290498
-1	-3	9	0	-1	-2	-1	-10	1473868290535
1	-3	-1	-1	0	0	1	-6	1473868290540
-2	-5	-16	-7	-3	-1	1	6	1473868290535
13	6	18	0	-3	-6	-4	5	1473868290540
-16	-5	-3	0	2	2	-1	-12	1473868290582
-9	1	2	-3	-3	-1	-1	-4	1473868290587
8	-2	-6	0	-2	-3	0	7	1473868290583
-5	-3	4	-5	-4	-4	-4	-3	1473868290588
-9	2	-2	-2	-1	4	-1	-1	1473868290583
-2	0	9	3	-1	-1	-2	0	1473868290588
15	-9	-19	-6	-2	-2	0	10	1473868290584
-15	-4	1	-1	1	4	-1	-19	1473868290589
-22	4	1	4	4	-2	0	13	1473868290629
-2	-2	-4	-1	-3	0	-2	-6	1473868290634
-9	-1	3	-1	-1	1	-1	-3	1473868290632
9	-4	-12	-1	0	-2	-2	2	1473868290637
6	3	14	0	-2	-1	-3	-6	1473868290633
2	-2	-1	-3	0	-1	-1	2	1473868290638
-4	-5	-14	-4	-4	0	1	-4	1473868290633
-5	-5	-1	-1	0	-3	-1	2	1473868290638
-5	0	-1	-2	-2	-5	-2	-3	1473868290680
-3	0	0	-1	-1	3	-4	-2	1473868290685
9	-5	-7	0	-1	-1	-1	5	1473868290680
-24	-2	-8	-4	-3	-2	-1	-7	1473868290685
-3	0	3	2	0	0	-3	2	1473868290725
6	7	13	1	0	-3	2	2	1473868290730
3	-3	-1	3	3	4	1	-1	1473868290726
-4	0	3	-3	-4	-3	-2	2	1473868290731
-4	-1	5	-3	-3	0	1	-1	1473868290726
6	-3	-14	-2	-2	-4	-1	4	1473868290731
-2	0	-2	0	-3	1	-2	-7	1473868290728
1	-3	-7	-3	-3	1	-3	3	1473868290733
-17	-3	0	1	1	-2	0	-7	1473868290773
3	-2	-5	-2	-1	-1	-2	6	1473868290778
-4	-1	-3	-3	-3	0	-2	-4	1473868290774
5	-2	-4	2	3	-1	0	2	1473868290779
-2	-5	-9	-10	-3	0	-3	-2	1473868290775
1	6	13	2	4	1	0	-2	1473868290780
4	-2	-2	-1	2	0	-1	0	1473868290822
-7	0	-2	-1	-1	0	0	-1	1473868290827
1	2	5	1	1	-1	-1	1	1473868290822
4	-8	-26	-2	-2	1	1	1	1473868290827
1	6	18	-3	-3	-3	-3	-2	1473868290823
-3	-3	0	-4	-4	-3	-1	-3	1473868290828
-1	2	0	4	4	1	0	7	1473868290867
11	-6	-12	-2	-1	-2	-2	-6	1473868290872
1	-3	-1	-3	-1	-4	-1	0	1473868290868
0	1	1	-3	0	-2	1	6	1473868290873
-3	0	-2	-1	0	-3	-3	-3	1473868290870
2	0	5	1	1	0	-2	3	1473868290875
-3	0	-6	-6	-4	0	0	-5	1473868290871
-1	-3	-5	5	2	-2	-1	-2	1473868290876
6	-1	-2	-2	-1	-4	-1	-1	1473868290917
-4	-5	-8	0	1	-1	-1	3	1473868290922
-5	-2	5	0	-2	2	-2	-5	1473868290917
0	3	3	1	1	-1	0	3	1473868290922
8	0	5	2	2	1	0	-1	1473868290962
-18	-2	3	-3	-3	-1	-3	-7	1473868290967
1	-4	-19	-3	-2	-2	0	-2	1473868290963
4	-1	2	-2	-3	-3	0	1	1473868290968
2	2	-1	-5	-3	2	-1	-1	1473868290964
-5	-1	0	1	3	0	-1	-4	1473868290969
3	-1	1	1	-1	2	-2	0	1473868290965
0	0	1	0	-3	-2	0	-1	1473868290970
2	-1	-10	0	-1	-3	0	2	1473868291009
3	0	6	1	-1	1	1	0	1473868291014
4	2	2	0	1	0	-1	2	1473868291057
-3	-2	-2	0	-2	1	1	0	1473868291062
1	3	16	3	-1	-3	0	-2	1473868291059
-7	-8	-22	-5	-5	-4	-4	2	1473868291064
24	-4	1	3	1	-1	0	0	1473868291060
0	1	4	-3	-4	-3	-4	-5	1473868291065
-1	-2	-3	5	6	1	-2	-4	1473868291107
1	2	7	-2	-2	-2	0	-2	1473868291112
-6	-1	-2	-3	-4	-3	-1	-3	1473868291107
-3	-2	-4	0	2	0	-2	1	1473868291112
-3	4	1	0	-2	-2	-3	-3	1473868291108
7	1	1	-4	-1	4	0	1	1473868291113
-9	-2	-2	-3	-1	-2	-2	-6	1473868291151
1	5	-1	3	1	0	-1	1	1473868291156
-2	-2	0	-1	-2	-1	-1	1	1473868291153
-7	2	6	1	-2	0	1	-2	1473868291158
3	16	-1	-2	-2	-2	-3	-6	1473868291154
7	-11	3	-2	-1	-3	-2	5	1473868291159
-7	-28	-10	-1	1	-1	0	-2	1473868291155
2	6	-4	-2	-3	-1	-1	0	1473868291160
4	0	2	0	1	2	-1	4	1473868291200
0	4	-4	-3	0	-2	1	-2	1473868291205
-15	1	10	0	-1	1	-1	-3	1473868291202
16	-2	-6	-1	-1	-1	-1	-6	1473868291207
3	-4	-7	-2	-3	-3	6	17	1473868291204
-6	1	3	1	-1	-10	-20	-2	1473868291209
14	6	7	-1	1	0	-3	1	1473868291247
-24	-5	-3	-4	0	23	20	0	1473868291252
-3	0	-17	-1	-2	-7	-3	-4	1473868291248
16	3	-2	3	-1	-7	-6	3	1473868291253
-17	-7	4	-2	1	2	-2	-5	1473868291250
1	1	-4	-1	-1	-4	4	0	1473868291255
4	6	-1	0	-2	1	-5	4	1473868291251
-2	-2	-7	-1	0	-3	-1	1	1473868291256
-10	-3	-7	-3	-3	1	-1	-6	1473868291295
18	-1	0	0	-1	0	-1	7	1473868291300
-6	0	9	-2	-2	-3	-2	-4	1473868291297
-6	1	-2	-2	-1	3	0	-6	1473868291302
-9	0	0	-2	0	2	1	1	1473868291297
-2	-2	-2	3	1	-5	-4	3	1473868291302
-3	-1	0	0	-2	1	-2	9	1473868291342
0	-3	-9	-4	-3	1	1	5	1473868291347
-6	2	6	3	1	0	0	-4	1473868291344
17	-6	-6	0	1	-4	-2	6	1473868291349
-38	-5	-6	-3	-3	-1	-3	-14	1473868291346
2	2	4	3	1	-3	0	4	1473868291351
-3	-3	-2	-2	-3	-1	0	-3	1473868291390
12	3	15	0	-1	1	-1	-1	1473868291395
-7	-1	17	-5	-3	-5	-4	-3	1473868291391
6	0	7	0	2	4	3	0	1473868291396
3	1	-2	-1	-1	-4	-2	-1	1473868291391
-9	-3	-2	0	0	-2	13	7	1473868291396
0	-3	-9	-4	-3	-1	-16	-19	1473868291393
-3	-1	-8	-4	-3	2	0	2	1473868291398
6	0	-1	0	-2	-2	-2	-9	1473868291437
-1	0	3	-1	-2	3	-1	5	1473868291442
-6	-1	5	-2	-1	-2	-1	4	1473868291487
-7	-1	-6	-2	3	2	-2	-11	1473868291492
8	0	10	1	0	2	1	4	1473868291489
15	-3	-4	2	-2	-4	-4	5	1473868291494
-13	4	1	-1	-4	-6	4	3	1473868291531
-28	-7	-12	-2	-1	2	-12	-9	1473868291536
9	3	7	-2	0	-1	-2	1	1473868291532
-15	-4	-3	0	0	0	1	-9	1473868291537
8	-2	-10	0	-1	-5	1	18	1473868291533
9	3	16	-2	-3	2	-1	-14	1473868291538
-2	-4	-18	4	5	-2	-2	-4	1473868291534
-1	-1	-3	0	1	-3	0	2	1473868291539
13	1	8	0	-1	1	-4	1	1473868291579
-9	-12	-18	-6	-4	-3	4	-4	1473868291584
-2	0	4	-2	-2	0	-1	1	1473868291580
-2	-5	-4	1	1	-3	-1	2	1473868291585
-35	-4	-3	0	-1	3	1	-10	1473868291580
5	7	11	-1	0	2	-2	0	1473868291585
-5	-3	-2	-4	-2	0	4	-6	1473868291582
1	-2	4	2	-2	-5	-2	5	1473868291587
12	-4	-4	1	0	0	-5	8	1473868291627
-11	1	-1	0	0	-1	0	-2	1473868291632
15	2	10	-10	-7	-4	-5	-1	1473868291628
-10	-5	-23	0	0	-2	-2	-1	1473868291633
0	-1	0	1	2	3	2	-1	1473868291629
5	0	-1	-2	0	-3	-7	1	1473868291634
2	-2	4	-1	-2	2	-1	-2	1473868291675
1	2	10	-1	-5	-3	-1	-3	1473868291680
3	0	-3	1	0	-1	2	0	1473868291679
-1	2	7	-3	-2	1	0	1	1473868291684
-9	1	-4	-1	-2	-6	0	-5	1473868291679
4	-3	-5	3	2	1	-2	0	1473868291684
-10	-3	1	1	-2	-2	4	7	1473868291722
11	-1	-1	-1	0	1	-2	-20	1473868291727
-30	-1	5	1	-3	-6	-1	-13	1473868291722
7	3	-6	0	-1	-2	6	2	1473868291727
-5	0	0	-9	-4	0	-12	-7	1473868291725
1	3	15	5	5	-3	1	4	1473868291730
7	-7	-15	-1	0	-4	-5	-2	1473868291725
6	-2	-9	0	1	3	2	8	1473868291730
4	-2	-5	1	0	-1	0	-4	1473868291771
-13	-1	-1	0	0	1	-1	3	1473868291776
4	0	0	1	-1	-2	2	1	1473868291771
5	1	5	-2	-1	0	-2	1	1473868291776
-4	-3	1	-2	-3	-4	-4	-3	1473868291818
-10	-4	-11	-2	-3	-1	-1	-5	1473868291823
13	-6	-21	-4	-4	-6	-6	3	1473868291866
-1	2	4	-2	1	4	1	-5	1473868291871
0	1	4	3	3	-2	-4	8	1473868291867
-15	-2	-9	-1	-2	0	6	-1	1473868291872
21	4	14	-10	-5	-1	-4	0	1473868291867
-2	-1	-5	1	6	-4	-1	1	1473868291872
3	1	0	2	0	0	-1	2	1473868291912
-4	-5	-3	-6	-7	-2	-1	-4	1473868291917
-4	-3	-5	-4	-3	-3	0	-4	1473868291915
-7	-1	-1	-3	1	-2	7	-2	1473868291920
5	-2	0	-1	0	2	-4	-4	1473868291915
-2	0	-8	1	0	0	-1	0	1473868291920
5	-5	-13	0	0	-1	-2	-3	1473868291959
-4	2	10	3	-1	-4	-1	2	1473868291964
-1	-1	-3	2	6	2	-2	-3	1473868291960
-1	1	11	-1	-4	-4	-4	1	1473868291965
1	-1	-2	-1	-2	-1	0	-1	1473868291960
-3	-7	-20	-5	-6	-1	-5	0	1473868291965
1	2	3	3	0	0	1	-5	1473868291963
-2	1	-6	-1	0	0	0	0	1473868291968
-6	2	0	1	-3	1	0	-3	1473868292009
-3	0	12	3	3	-1	0	-1	1473868292014
-1	-4	-7	-4	-4	-4	0	-1	1473868292009
7	1	10	2	0	-1	-4	0	1473868292014
1	-4	-16	0	3	0	0	-1	1473868292053
-1	-3	2	-6	-5	5	-1	1	1473868292058
1	-1	-4	-2	0	-2	-2	0	1473868292055
1	3	1	1	-1	-1	0	-1	1473868292060
-4	-2	4	-4	-5	-2	-2	-1	1473868292055
-3	-4	-20	-1	-1	1	0	-3	1473868292060
5	2	15	-2	1	1	-1	-2	1473868292149
-6	2	9	0	-3	-2	-2	-1	1473868292154
-1	2	14	2	6	1	2	-1	1473868292152
1	-1	-4	-3	-2	0	-1	0	1473868292157
-2	0	2	3	-1	-3	-1	-4	1473868292152
-3	-1	-4	-5	1	3	1	-1	1473868292157
1	-2	-2	4	-2	-3	-2	0	1473868292153
-3	0	3	-3	-1	-2	-1	0	1473868292158
-2	-4	-6	-2	-1	-3	-2	-1	1473868292200
-1	4	13	1	-3	-2	-1	1	1473868292205
-1	-8	-23	-8	-4	-2	-2	-2	1473868292200
0	0	2	4	3	-2	-2	0	1473868292205
-1	0	6	-1	-3	-1	-1	-3	1473868292245
0	0	-5	1	3	-1	0	-1	1473868292250
0	-1	1	-1	1	1	1	-1	1473868292246
-1	-1	-5	-1	0	-1	0	-1	1473868292251
-1	0	16	-2	0	0	-1	-2	1473868292246
-2	-3	-10	-5	-3	-1	-2	0	1473868292251
0	0	1	1	-1	-2	-1	1	1473868292247
-1	1	5	-4	-2	-2	-2	-3	1473868292252
4	-2	-8	-4	1	16	11	8	1473868292293
-13	-2	-3	1	-3	-3	1	0	1473868292298
9	5	10	-1	4	-3	0	-3	1473868292293
-2	-2	-1	1	-2	-7	-4	-1	1473868292298
0	-2	-1	0	0	-3	-5	-3	1473868292339
-4	-3	-2	-3	-4	-6	-1	-2	1473868292344
-2	-2	3	4	1	5	1	-1	1473868292340
3	-1	-5	1	-1	0	-3	2	1473868292345
-1	1	2	-1	-5	-3	-2	-2	1473868292343
2	-2	-2	-3	0	-1	0	-2	1473868292348
-3	-2	14	-1	1	3	1	-2	1473868292346
-5	-2	-19	-3	-4	-1	-1	0	1473868292351
-3	-3	-10	-6	-5	-3	0	-3	1473868292387
1	1	-1	3	-3	-1	-4	0	1473868292392
-2	-1	1	-2	-3	-3	-3	-6	1473868292390
3	1	6	-3	2	-6	-7	0	1473868292395
-2	-5	-6	-2	-2	8	6	3	1473868292390
1	-2	-1	2	3	1	0	-3	1473868292395
0	0	1	-1	-2	3	1	-1	1473868292436
1	1	10	2	0	2	1	0	1473868292441
-1	-5	-12	-1	2	-5	-2	-2	1473868292437
-1	0	-4	-1	-2	0	-2	-2	1473868292442
-1	-3	13	1	-1	-4	-3	-1	1473868292482
1	2	9	1	2	2	1	0	1473868292487
-2	-2	5	1	1	-2	-2	0	1473868292484
0	0	11	1	-1	-2	0	0	1473868292489
-1	-4	-26	-4	0	-1	-1	-3	1473868292484
0	0	-4	-6	-6	-1	0	-2	1473868292489
-1	1	-9	1	0	1	-1	-2	1473868292486
-1	-3	6	2	2	1	-1	-1	1473868292491
-1	-3	-4	-6	-1	1	-1	0	1473868292532
-2	-1	0	1	3	-1	-1	-3	1473868292537
2	2	0	2	1	-1	0	0	1473868292539
-1	-1	-3	-3	-1	-1	-1	-1	1473868292544
-2	1	6	1	-1	-2	-1	-2	1473868292576
-2	-6	3	-3	-5	0	-1	0	1473868292581
-1	0	-2	2	1	-3	1	-2	1473868292577
-1	0	7	1	-1	1	-1	-2	1473868292582
0	1	-4	0	-1	3	-2	-1	1473868292577
-2	-1	1	-5	-3	-4	-1	-1	1473868292582
0	-4	-6	-1	0	-3	-5	-2	1473868292579
-2	-3	-7	-4	-7	-5	8	-1	1473868292584
0	1	10	2	3	1	-10	-1	1473868292624
1	0	-7	4	6	1	-1	0	1473868292629
-5	1	22	0	-1	-3	2	1	1473868292625
-4	-4	-7	2	1	3	5	-3	1473868292630
-3	0	2	2	3	-5	-5	3	1473868292626
-3	1	5	0	-3	-5	-7	-2	1473868292631
-2	-3	-4	-5	-6	-2	1	-2	1473868292628
0	6	11	4	-1	-2	-3	-2	1473868292633
-2	-2	-11	-4	-2	0	2	-2	1473868292674
0	0	-2	1	1	-1	-1	1	1473868292679
2	-4	-7	-2	0	-5	-2	-1	1473868292674
-1	-1	-3	-4	-4	-6	-3	-2	1473868292679
2	1	6	3	2	4	3	0	1473868292721
-2	-2	-4	0	0	-3	-5	0	1473868292726
-1	0	0	3	1	0	1	-2	1473868292721
1	0	-1	-8	-5	0	0	-1	1473868292726
1	-2	-7	6	4	0	-1	-1	1473868292722
-2	-3	-7	-1	-2	-4	-3	-1	1473868292727
0	-1	-7	-2	0	-3	0	-2	1473868292723
0	-3	-4	-2	0	2	-3	0	1473868292728
1	0	1	4	4	0	1	-1	1473868292768
-2	1	0	-3	-3	-5	-2	-1	1473868292773
-1	-2	-7	-5	-4	-1	-1	-2	1473868292771
-2	-1	1	-2	-2	-2	-3	-1	1473868292776
0	0	1	-5	-1	-1	-1	-2	1473868292772
-1	-2	-4	1	-1	0	0	-1	1473868292777
-2	-1	-1	-3	1	-1	1	-1	1473868292818
-1	-1	-5	-1	-2	-2	-3	-1	1473868292823
-1	-2	3	-1	-2	-1	-1	-1	1473868292818
-1	0	-20	5	2	0	0	-1	1473868292823
-1	-2	7	1	0	0	-1	0	1473868292862
-2	-1	-4	0	1	-1	0	0	1473868292867
-2	0	2	3	-3	1	-4	-1	1473868292862
-2	0	3	1	2	2	1	0	1473868292867
0	0	2	-2	0	0	0	-1	1473868292864
1	-1	-3	-4	-2	0	0	0	1473868292869
-3	-3	-5	-3	-2	-4	0	-1	1473868292865
0	-4	8	-2	-1	-2	-2	-3	1473868292870
0	-1	4	0	-2	-4	-1	-1	1473868292911
0	1	5	-1	-2	-3	-1	-1	1473868292916
-1	-2	-9	0	-2	1	1	-1	1473868292911
1	3	4	1	2	1	0	-1	1473868292916
-2	-2	4	-1	-1	-2	-2	-1	1473868292957
-3	-3	-6	-3	-1	-1	-3	1	1473868292962
12	0	-4	-3	-2	1	0	1	1473868292958
-3	-3	-6	-3	-1	-5	-1	-1	1473868292963
4	-2	4	0	1	2	-1	-2	1473868292958
-13	0	3	2	0	0	6	1	1473868292963
-5	-1	-7	-4	-2	1	-11	-5	1473868292960
-4	-2	-3	-4	-4	-1	-4	3	1473868292965
12	2	5	1	0	-2	0	-10	1473868293052
6	0	-4	0	0	-1	-2	-3	1473868293057
-5	-2	18	-10	-4	-1	-1	2	1473868293054
3	0	2	3	1	-4	-4	0	1473868293059
-1	2	0	3	2	-1	0	0	1473868293054
-2	-4	-4	-4	-3	0	-2	-2	1473868293059
-4	-3	-12	0	-2	-2	1	-1	1473868293056
4	-2	1	-2	-1	1	-1	1	1473868293061
-4	-1	-1	3	3	0	0	0	1473868293101
-1	-1	-5	-4	-2	-2	-2	2	1473868293106
-1	0	1	1	0	-1	0	-1	1473868293103
3	-3	-2	-1	-2	-1	-2	4	1473868293108
-1	3	14	-3	-2	0	-3	0	1473868293148
-5	-5	-25	-4	-2	0	0	1	1473868293153
-7	0	3	0	-1	-1	1	-2	1473868293149
11	-1	0	-1	-1	-1	-1	2	1473868293154
-3	-4	-21	1	-3	-1	0	-1	1473868293150
0	3	12	3	0	-1	-1	-1	1473868293155
0	-3	-15	-15	-4	-3	0	-1	1473868293151
-6	-1	2	-1	4	4	-1	1	1473868293156
-1	-5	-55	-2	0	0	0	7	1473868293195
-2	2	3	-3	-1	-1	-2	-6	1473868293200
0	1	7	1	-1	-1	0	0	1473868293197
-2	-2	12	-1	-1	-4	-1	-1	1473868293202
-1	-2	4	1	1	1	1	2	1473868293242
-2	-2	-12	-2	-3	-2	-1	-1	1473868293247
0	-2	27	3	1	0	0	-1	1473868293244
-2	-1	-39	-2	-2	-3	-3	-3	1473868293249
0	-1	33	0	-4	-2	-2	-2	1473868293244
0	-3	-14	-7	-2	-3	-1	-1	1473868293249
1	0	5	3	-1	2	-2	1	1473868293246
-3	0	3	2	-1	-1	0	0	1473868293251
-4	-5	-14	0	0	-1	-1	-10	1473868293291
0	3	-7	0	-1	-2	1	4	1473868293296
-1	-1	6	-2	0	-1	-2	-4	1473868293291
-2	-1	10	-4	-3	-3	1	8	1473868293296
1	-3	-18	3	0	-2	-1	-14	1473868293293
-15	-2	7	-9	-2	-1	-1	-2	1473868293298
-12	0	-7	2	-2	-1	0	3	1473868293338
-3	-4	1	-4	-4	-4	-3	-7	1473868293343
11	2	20	0	0	0	-2	2	1473868293339
-1	1	6	2	3	-1	0	1	1473868293344
-7	-2	-10	0	0	0	-1	0	1473868293341
4	-3	-2	-3	-1	0	-2	-3	1473868293346
0	-3	-3	1	-3	-7	0	6	1473868293384
2	1	5	-2	-2	4	0	-2	1473868293389
2	0	-1	-3	-2	-1	-3	-1	1473868293387
0	-4	18	-4	-2	-2	-1	-3	1473868293392
-5	-1	-1	0	2	1	2	6	1473868293388
-2	-2	-5	1	1	0	0	-12	1473868293393
3	-2	-9	-1	-2	0	-1	1	1473868293390
3	-2	-2	-7	-4	-3	-4	-5	1473868293395
-7	-2	-9	-3	-2	0	-1	-3	1473868293528
-2	-2	21	0	3	0	-4	3	1473868293533
-1	0	3	0	-1	-1	1	-5	1473868293529
-5	-1	-13	-5	-2	-2	-1	0	1473868293534
1	0	-2	-6	-7	-3	-3	0	1473868293577
-3	0	5	6	-2	-2	-2	-1	1473868293582
3	-1	-11	-1	2	0	0	-3	1473868293577
-5	-1	3	-8	-3	-1	-1	0	1473868293582
0	-1	7	-2	-2	-2	-1	-2	1473868293577
0	2	-7	-2	-3	-6	-1	0	1473868293582
0	-1	1	-6	-6	-1	0	0	1473868293579
-4	-2	-2	-5	0	-1	-1	-1	1473868293584
-1	-4	-7	-7	-4	-3	-2	0	1473868293623
0	-2	0	-5	-3	-1	-1	-1	1473868293628
-2	0	12	0	-1	-1	0	0	1473868293625
0	-3	-4	-1	-3	-2	-1	0	1473868293630
-2	0	-3	-2	-3	1	-1	-2	1473868293625
0	0	2	4	4	0	0	0	1473868293630
0	-1	3	-9	-6	-3	-1	0	1473868293672
-1	-2	-1	0	-4	0	-1	0	1473868293677
0	-2	-3	-1	1	-1	-3	0	1473868293672
-1	-2	1	1	0	-3	-1	0	1473868293677
0	-2	-2	0	0	0	-2	-1	1473868293673
-3	-2	-1	-6	-6	-2	-2	-3	1473868293678
-3	-1	-6	13	-1	3	-3	-2	1473868293718
-1	-4	1	-8	-4	-3	-3	0	1473868293723
1	2	14	8	6	5	-1	0	1473868293718
1	-1	-15	-9	-5	-2	-1	-2	1473868293723
-1	-1	-5	-2	0	-2	-1	-2	1473868293721
-3	-1	1	2	-2	-2	-1	-2	1473868293726
-2	0	2	-2	-4	-5	-3	-2	1473868293768
-2	-1	0	3	-1	-1	0	1	1473868293773
2	1	-1	-3	-3	-2	1	1	1473868293769
-2	-2	1	1	1	1	-2	-3	1473868293774
-1	0	3	-9	-1	0	-1	0	1473868293769
-2	-5	-1	1	-3	-1	-2	-2	1473868293774
-1	-2	-5	6	5	0	-1	0	1473868293769
1	0	1	-2	-4	-1	-3	-1	1473868293774
1	0	11	12	7	2	3	1	1473868293813
1	-1	-7	-18	-2	1	-1	-1	1473868293818
-4	-5	1	16	-2	-8	-4	-4	1473868293813
-1	2	5	-3	1	0	1	-2	1473868293818
-2	0	-8	-13	-9	-3	-3	-1	1473868293859
1	-1	1	9	13	0	1	0	1473868293864
-2	-1	3	-2	-4	-1	-4	-1	1473868293859
-1	-2	-4	-6	-3	-1	-1	-1	1473868293864
-2	-3	-10	-6	-2	0	-2	-1	1473868293861
-1	1	-1	4	2	-1	-1	-1	1473868293866
-1	0	-7	-1	-1	-1	0	0	1473868293863
-1	3	5	5	1	-1	-2	-1	1473868293868
0	-2	1	-4	-5	-6	-2	-2	1473868293907
3	-1	-5	5	2	8	3	0	1473868293912
-1	1	3	-3	-2	-1	-2	0	1473868293907
0	0	0	-5	-4	-3	-2	0	1473868293912
-5	-8	-11	-8	1	1	-2	-2	1473868293909
-1	1	3	3	-2	-1	-3	0	1473868293914
0	0	-7	-5	-1	0	0	-2	1473868293911
0	1	6	-2	-3	-2	2	1	1473868293916
-1	2	13	-3	-6	-7	-4	-1	1473868293956
0	0	3	-1	-1	-1	0	-2	1473868293961
0	-1	-11	-2	-2	0	-1	-1	1473868293956
-2	-4	10	-6	-6	-4	-5	-3	1473868293961
0	-1	-4	12	8	3	2	-1	1473868293957
1	4	2	3	4	5	-1	0	1473868293962
0	-3	-1	1	-5	-3	-3	0	1473868294003
-2	0	2	2	0	-5	-3	-3	1473868294008
-2	-3	-3	-2	3	2	-1	-1	1473868294003
-2	-1	5	-3	-3	6	-1	0	1473868294008
-1	-3	7	4	-1	-3	-1	-1	1473868294005
-2	-2	-17	-4	-5	-4	-2	-3	1473868294010
-2	-1	-4	-7	-2	-4	0	0	1473868294005
0	0	6	-4	-3	-4	0	0	1473868294010
1	5	5	-1	0	1	0	-1	1473868294051
-2	-6	-13	0	0	-1	-3	-4	1473868294056
0	1	3	-3	-5	-1	0	2	1473868294052
0	0	4	-17	-6	-4	0	-1	1473868294057
-2	-3	-8	12	0	0	-1	-3	1473868294054
3	3	7	3	0	1	0	1	1473868294059
-1	3	-5	-1	-1	0	-2	-1	1473868294147
-1	0	2	0	-1	1	-2	-1	1473868294152
-2	-5	-4	-4	-7	-4	-2	-1	1473868294147
0	-1	-6	1	4	-2	0	1	1473868294152
-1	-1	2	-4	3	-4	-2	-2	1473868294149
0	0	6	-1	-3	2	-1	-2	1473868294154
0	-1	2	2	3	0	0	-1	1473868294195
0	1	-3	-4	-1	-1	0	0	1473868294200
-2	1	4	-1	1	-1	1	0	1473868294195
-1	2	6	1	-2	-1	-1	-2	1473868294200
-1	0	-6	-12	-4	0	0	0	1473868294195
-1	0	-2	3	0	-2	-1	-1	1473868294200
1	-2	4	-2	-5	-2	-1	-1	1473868294195
-1	-3	-2	-4	-6	-5	-3	-3	1473868294200
2	-2	-1	-16	-4	-3	-2	1	1473868294241
-2	-1	-1	8	-1	-2	-2	-2	1473868294246
-1	4	-1	12	0	2	0	-2	1473868294241
-2	-5	-2	2	4	-1	0	-2	1473868294246
-1	-1	-8	2	-3	2	0	0	1473868294243
1	-5	6	-10	-4	-3	1	-1	1473868294248
0	15	2	7	-5	-1	0	-2	1473868294289
-1	-32	-8	-4	3	-1	-1	-1	1473868294294
0	10	4	19	19	6	2	3	1473868294289
-2	-12	-1	-19	-12	-6	-2	-1	1473868294294
-1	-2	2	16	5	5	0	-1	1473868294335
0	7	-7	-1	-3	-2	0	0	1473868294340
2	3	-5	-7	2	0	1	-1	1473868294335
-4	-4	-8	-38	-12	-4	-2	-3	1473868294340
-2	-7	1	25	-7	-1	0	-1	1473868294335
0	7	-1	2	10	1	-2	0	1473868294340
-2	-14	-4	-8	-5	-4	-2	0	1473868294382
-1	10	6	10	2	0	-1	0	1473868294387
1	29	13	-2	4	1	0	2	1473868294385
-4	-34	-9	1	-3	-1	0	-2	1473868294390
1	29	-1	0	6	-1	-1	1	1473868294386
-6	-29	4	2	-1	-3	-2	-1	1473868294391
-1	0	-1	-6	-3	-2	-3	0	1473868294386
-2	-3	-3	-1	1	1	-1	0	1473868294391
-2	-19	-4	-8	-5	-3	-3	-3	1473868294435
1	11	3	4	-1	1	0	-1	1473868294440
-2	-14	-3	-6	-2	4	0	-1	1473868294435
2	10	-6	-5	-2	0	-1	-2	1473868294440
-2	-5	3	1	-2	-4	-2	0	1473868294478
-1	-3	-4	5	1	-1	0	0	1473868294483
0	-6	-4	-5	-2	-2	-1	0	1473868294478
1	4	2	2	1	-1	1	0	1473868294483
-2	-8	0	-1	2	3	-1	-1	1473868294480
0	4	-2	-1	1	1	0	0	1473868294485
-3	2	2	-4	-4	-2	-1	-4	1473868294525
-2	-1	-10	-1	-3	-2	-3	-1	1473868294530
3	-5	-9	4	2	7	4	3	1473868294525
-3	2	2	2	4	2	3	1	1473868294530
-3	-2	0	-2	2	-3	-4	-1	1473868294527
-1	0	-1	3	-2	-4	-2	-1	1473868294532
-3	-4	1	1	-3	-1	-2	-1	1473868294571
1	0	0	-5	-4	-1	-2	-2	1473868294576
-1	-3	-2	-5	-5	-2	-4	-1	1473868294575
0	-1	-4	-4	-4	-5	-2	-2	1473868294580
-2	-5	-1	8	3	3	1	0	1473868294575
-1	2	2	1	2	3	2	0	1473868294580
-3	-5	-3	-3	-4	-3	0	-2	1473868294621
0	2	-3	-4	-4	0	-3	-1	1473868294626
0	-2	2	0	2	-1	-2	-2	1473868294621
-2	1	0	-3	-5	-3	-5	-1	1473868294626
0	-3	-3	-6	-3	-2	8	0	1473868294622
0	2	3	-2	-3	-1	-2	-1	1473868294627
-1	-3	-7	-2	-2	1	0	-1	1473868294623
0	0	-2	-4	-3	-2	-3	-2	1473868294628
-1	-2	-2	-10	-3	-3	-4	-1	1473868294668
0	-2	1	4	-3	-4	0	0	1473868294673
-2	-1	-1	6	8	0	-3	-1	1473868294671
0	-3	-2	-7	-3	1	-1	0	1473868294676
-2	-1	-2	1	0	1	1	-2	1473868294715
0	2	0	-1	-3	-10	-4	-2	1473868294720
0	-1	0	0	-2	-6	1	-2	1473868294716
0	-1	3	-1	1	1	1	-1	1473868294721
1	1	-3	1	0	-1	-1	-2	1473868294717
0	-3	-1	3	3	-2	0	0	1473868294722
-1	-4	-3	-1	-1	-1	0	0	1473868294718
0	-1	-3	-12	-7	-5	-1	0	1473868294723
0	0	-3	-2	-4	0	0	1	1473868294763
2	3	6	0	1	0	0	-1	1473868294768
-1	0	-2	4	1	-1	-1	0	1473868294765
-1	0	-3	-5	2	-1	-2	1	1473868294770
0	0	0	-6	-7	-1	-2	-1	1473868294765
-3	-1	-2	1	-2	-5	0	-3	1473868294770
1	0	0	0	-4	1	-3	-2	1473868294811
0	-1	-4	-3	-2	-2	-2	1	1473868294816
-1	0	-4	-4	0	-5	-3	-3	1473868294811
1	-1	2	7	1	-3	1	1	1473868294816
-1	-3	-2	0	1	-1	-2	-1	1473868294857
-2	-2	-1	-1	-4	3	0	1	1473868294862
-2	0	-1	-4	-2	-1	1	0	1473868294857
0	-1	-1	-1	-4	-1	1	-1	1473868294862
-2	-1	2	0	-2	-1	-2	0	1473868294859
-3	-1	-1	2	0	1	0	-2	1473868294864
-1	0	1	0	2	-3	-3	-1	1473868294859
0	-1	-4	-1	-1	1	-2	-1	1473868294864
2	0	-1	-7	-4	0	0	-1	1473868294908
0	-3	-7	-13	4	-1	-5	-2	1473868294913
0	0	0	7	0	1	0	0	1473868294908
-3	-2	0	-2	-5	-7	-3	-3	1473868294913
1	-3	-2	5	2	-1	0	2	1473868294954
0	2	3	1	3	5	2	1	1473868294959
-1	-2	-2	-8	-3	-6	0	-4	1473868294955
0	0	-1	5	4	5	0	-1	1473868294960
-1	-3	3	-2	3	0	-1	-2	1473868294955
-1	0	-6	2	-2	4	0	1	1473868294960
-2	-1	-1	19	8	-2	-4	-3	1473868295001
-1	-3	-6	-5	-8	-8	-2	-1	1473868295006
-1	1	3	11	7	0	-2	-1	1473868295002
0	-3	-18	2	4	4	2	0	1473868295007
-2	-1	1	3	3	-1	-1	-1	1473868295004
-1	2	7	7	-3	-5	-1	0	1473868295009
-2	-2	-3	-12	-6	-7	-2	-2	1473868295004
-2	-1	5	1	4	10	2	-1	1473868295009
0	0	0	-4	-2	4	-1	1	1473868295049
-2	-2	-4	-15	-4	-1	-2	-3	1473868295054
0	-4	-9	29	9	2	1	0	1473868295049
-2	-1	18	-8	-12	-6	-6	-1	1473868295054
-2	0	-5	7	5	-2	1	-1	1473868295096
0	-2	-2	3	3	1	1	-1	1473868295101
-1	1	7	2	-7	-4	-4	-2	1473868295096
-1	-3	1	-2	-3	-6	-1	-1	1473868295101
-3	-2	11	-11	-3	0	-2	-2	1473868295097
0	2	-1	5	8	9	4	2	1473868295102
-1	0	3	-2	-5	2	1	1	1473868295098
1	0	-1	-1	3	0	-3	0	1473868295103
0	-1	-1	-4	-4	-8	-4	-2	1473868295143
1	2	-2	-2	-1	-9	-1	0	1473868295148
-1	-6	-61	-23	-13	-4	-4	-1	1473868295144
0	-2	13	0	-6	-3	-1	-1	1473868295149
-1	0	-12	11	5	-4	-4	-1	1473868295191
-1	-4	5	-4	-4	-3	-2	-2	1473868295196
-3	1	15	6	10	7	3	-1	1473868295191
-1	0	-7	-11	-8	-2	-3	-2	1473868295196
-1	-3	4	2	1	1	0	-1	1473868295237
0	0	-8	1	4	-1	-2	0	1473868295242
2	4	10	-3	-3	-2	2	0	1473868295239
-1	-2	-4	9	3	-4	1	0	1473868295244
-3	-1	13	12	-2	-2	-2	-2	1473868295240
-1	-2	1	-5	5	0	-3	-2	1473868295245
1	1	-4	-7	-4	-2	0	1	1473868295241
0	1	-1	1	0	-5	-2	0	1473868295246
-1	-2	-1	-12	-3	7	-2	-2	1473868295286
-3	0	-2	1	-6	-5	-4	-2	1473868295291
0	-1	4	5	-2	0	0	-1	1473868295288
0	1	-47	-13	1	6	1	0	1473868295293
-2	-2	-1	5	3	-5	-4	-3	1473868295288
-1	3	-3	8	-1	-2	-2	-1	1473868295293
-1	-4	-4	-3	-2	-4	-2	-1	1473868295288
-2	3	25	2	-1	0	1	-3	1473868295293
-3	-2	-2	6	4	5	3	-1	1473868295333
0	-1	3	6	-1	-1	-1	-3	1473868295338
0	-1	-5	-18	-8	-2	-4	-2	1473868295333
-1	4	-1	12	-2	-4	0	-2	1473868295338
1	-6	5	2	10	2	1	1	1473868295380
-2	0	-7	5	2	8	1	0	1473868295385
-2	-7	1	-3	-4	-1	-2	-2	1473868295382
0	1	13	4	1	-1	3	2	1473868295387
-1	-4	-12	-12	-7	-5	-4	-2	1473868295384
-2	-1	-4	-8	-7	-3	-3	-1	1473868295389
-3	1	3	6	4	1	-1	-3	1473868295384
1	-2	4	1	3	-3	-2	0	1473868295389
0	2	1	-4	-1	13	-1	-1	1473868295428
-2	0	3	3	-5	-4	3	-3	1473868295433
-2	-6	-3	-8	2	1	-1	0	1473868295429
-2	-4	1	-5	-9	-2	-1	-1	1473868295434
-2	-3	-4	5	3	-6	-3	-1	1473868295474
0	6	4	8	5	0	-2	-2	1473868295479
-1	-1	0	-8	-7	-2	-1	0	1473868295475
-4	-5	-11	0	2	1	-2	-2	1473868295480
-1	-7	0	-1	-3	-6	0	-2	1473868295475
-2	-4	8	1	1	2	-2	0	1473868295480
-1	4	1	0	-4	0	-1	-1	1473868295478
1	-1	6	2	2	0	3	1	1473868295483
-3	6	-10	-10	-12	-7	-5	-2	1473868295522
-3	-12	3	-1	1	-2	2	1	1473868295527
1	-2	-1	-13	-12	-5	-4	-3	1473868295524
0	5	-4	11	1	-2	-3	-1	1473868295529
0	2	3	-1	0	-8	0	0	1473868295524
-2	-5	-2	-6	5	5	0	0	1473868295529
3	2	0	2	0	3	3	3	1473868295526
0	-3	-6	-2	-7	-3	-4	-2	1473868295531
1	12	4	29	2	-4	0	-2	1473868295572
1	-10	-9	-19	-5	0	-2	-1	1473868295577
-2	-4	18	1	6	2	0	-1	1473868295572
-1	-2	-10	1	1	0	-4	-2	1473868295577
-1	-4	0	-8	-6	-4	-1	-2	1473868295618
1	8	-2	-5	-4	2	3	2	1473868295623
-1	-2	-6	-10	-3	-2	-3	-1	1473868295618
-1	4	2	3	-1	-1	1	-1	1473868295623
-2	-8	-4	-6	1	1	1	-1	1473868295665
-1	-4	4	-9	-12	-8	-4	-1	1473868295670
0	2	2	13	7	4	1	-1	1473868295666
-1	3	0	-4	-4	-4	-4	-3	1473868295671
-2	-2	-3	0	-6	-2	-1	-2	1473868295668
0	-5	-4	19	10	1	-1	-2	1473868295673
-1	0	-3	-6	-3	-1	-1	-1	1473868295712
-1	12	4	2	3	-1	1	-1	1473868295717
-3	-8	0	-6	-5	-5	-4	1	1473868295713
0	1	3	8	5	-5	-2	1	1473868295718
0	0	-4	-5	-6	5	-3	-1	1473868295713
-2	-1	2	-6	-4	-5	-2	-1	1473868295718
-3	-5	-7	1	3	0	0	-3	1473868295759
-1	-4	-4	-1	-4	-2	-2	0	1473868295764
0	0	1	2	1	1	2	-2	1473868295761
-1	1	-2	-1	-2	-4	-4	-2	1473868295766
-2	0	-1	-3	-3	-5	0	-1	1473868295762
-1	-5	-4	-1	-2	2	-2	-2	1473868295767
-2	1	1	0	1	1	1	0	1473868295763
-3	-2	-3	-3	0	1	1	-1	1473868295768
-4	-3	-4	10	9	14	2	0	1473868295808
-4	-1	-2	-7	-4	-1	-2	-1	1473868295813
18	2	-1	2	4	1	0	1	1473868295810
-18	-3	-1	-8	-7	-5	-3	-2	1473868295815
0	0	1	-5	-4	-3	-2	-1	1473868295855
-4	-3	3	3	0	-1	1	-1	1473868295860
0	-2	-1	-1	-3	-3	-1	-1	1473868295855
-3	-2	-1	1	3	2	-1	0	1473868295860
-5	-1	-1	-2	-2	-2	-2	-1	1473868295857
4	0	1	2	1	-2	-1	-1	1473868295862
-3	0	1	-4	-3	2	-2	-3	1473868295858
3	-2	-2	-4	-2	-2	0	0	1473868295863
-3	-2	0	4	-1	-1	0	-2	1473868295902
-1	1	-3	-3	-3	0	-1	-2	1473868295907
-4	-3	0	25	6	2	0	-3	1473868295903
0	0	2	-15	-2	-1	-3	-2	1473868295908
-1	0	-8	11	-3	-2	0	1	1473868295903
-2	0	6	-8	-2	-4	-3	-3	1473868295908
0	-3	-3	2	1	0	-1	0	1473868295905
6	1	-3	-6	0	1	1	1	1473868295910
-2	7	-14	-17	-8	-1	0	0	1473868295953
-3	3	5	10	1	1	1	-1	1473868295958
-6	-2	0	-5	0	-1	-2	-3	1473868295954
5	-2	-5	-4	-1	-3	-1	-2	1473868295959
4	-2	8	4	0	3	0	2	1473868295997
-2	-2	-6	-11	-9	-5	-2	-1	1473868296002
-2	-4	3	9	14	7	0	-2	1473868295999
3	-1	-8	-7	-3	-3	-1	0	1473868296004
-2	0	2	-3	-3	1	-1	1	1473868296000
-2	-2	-2	0	-2	-4	-2	-2	1473868296005
2	-1	-2	-9	-3	-5	-3	0	1473868296001
-4	-3	-1	-10	-2	-1	0	0	1473868296006
-2	6	6	12	-1	-1	-1	-3	1473868296045
6	-7	-13	-8	-3	1	0	1	1473868296050
-6	-2	-2	-6	-5	-4	-2	-2	1473868296048
1	3	4	1	0	1	-1	-2	1473868296053
0	-3	-1	-4	0	1	-2	-1	1473868296048
2	1	9	7	-3	-5	-2	0	1473868296053
-10	-7	-3	-12	-2	-2	-2	-1	1473868296048
4	-2	-8	7	2	5	1	-1	1473868296053
-1	2	5	29	2	1	3	0	1473868296092
0	-3	-9	-17	-6	-1	-2	-1	1473868296097
-3	-6	-2	0	-1	0	-3	-2	1473868296094
-7	4	-2	-15	-6	-5	-1	-1	1473868296099
0	-1	0	-3	-1	-3	0	-1	1473868296095
7	-8	-7	9	5	8	0	-1	1473868296100
-12	5	8	-3	-3	-1	0	-1	1473868296143
1	3	-7	1	-2	2	-1	-1	1473868296148
3	-15	7	-6	-1	-1	-3	-1	1473868296143
-8	-7	-2	2	-3	-3	-1	-1	1473868296148
6	0	-1	4	3	-4	0	0	1473868296143
0	9	-3	-2	-3	1	0	-1	1473868296148
3	2	-4	3	2	1	-1	-1	1473868296143
-6	2	1	-8	-6	-4	-2	-3	1473868296148
2	4	-3	6	1	-4	0	-1	1473868296187
6	-1	6	-1	4	4	1	3	1473868296192
-4	-2	-3	-13	-4	-2	-1	-3	1473868296235
-3	-2	7	22	6	0	0	1	1473868296240
-3	-3	-6	6	4	2	0	-3	1473868296235
-1	-1	-3	-6	-3	-5	-4	-1	1473868296240
-2	1	0	-3	-2	-1	-2	-3	1473868296238
-1	-3	-3	0	1	4	0	0	1473868296243
3	-2	-3	1	2	-1	-2	-2	1473868296283
5	5	4	-9	-6	2	2	1	1473868296288
-5	-2	1	12	5	2	2	0	1473868296284
0	4	-1	1	1	-1	-1	1	1473868296289
-1	2	2	0	-4	0	-3	1	1473868296286
-4	-3	-4	-4	-3	-3	-1	-3	1473868296291
-1	-1	-3	-4	-3	-2	-1	-1	1473868296329
3	-2	-3	2	4	-2	3	2	1473868296334
-2	-2	0	-4	-8	-4	-1	-1	1473868296331
-2	-1	5	20	12	-1	0	-2	1473868296336
-1	0	-3	2	-6	3	2	-1	1473868296333
0	-3	-3	-19	3	0	-3	-1	1473868296338
0	3	-6	-5	-7	-4	0	-1	1473868296377
-1	2	0	-4	-3	-2	-1	-3	1473868296382
3	14	7	3	4	2	-2	1	1473868296377
-1	0	-3	-7	-5	-3	-1	-1	1473868296382
-5	5	4	4	3	-2	-3	-3	1473868296378
5	3	-3	-1	-2	0	2	-1	1473868296383
-3	-9	-2	10	7	0	-1	-2	1473868296425
0	-4	4	-10	-8	-3	-3	-1	1473868296430
0	-2	1	0	0	-1	0	1	1473868296426
-1	1	0	14	2	3	-3	-3	1473868296431
-1	-2	-2	-8	-3	-2	-2	-2	1473868296426
-3	-2	-6	-1	-3	-2	-5	-2	1473868296431
-1	2	3	-10	-2	1	5	1	1473868296428
-1	-2	-2	-6	-3	-2	-2	-3	1473868296433
2	4	2	-14	-8	-3	-2	-1	1473868296475
0	-4	-9	4	2	-1	-1	-3	1473868296480
0	3	2	-1	1	-1	0	2	1473868296476
1	1	-2	-4	-4	-2	-3	-1	1473868296481
-4	-5	-1	-3	-5	0	-1	-3	1473868296478
-1	-3	2	5	5	3	2	-1	1473868296483
-1	-2	-4	8	1	0	-1	-1	1473868296520
1	-4	-7	4	1	-4	-3	-1	1473868296525
-3	-5	-5	-5	-5	-6	-4	-3	1473868296521
0	2	2	-2	1	2	1	0	1473868296526
-1	-1	-3	3	4	5	0	0	1473868296521
-1	-1	-2	-5	-5	-3	-3	-1	1473868296526
-1	-2	-4	-2	1	0	-1	-3	1473868296523
1	0	3	4	-1	-3	0	1	1473868296528
0	-1	-3	-8	-3	-1	-2	-1	1473868296569
0	-2	-1	5	3	2	-1	-2	1473868296574
0	-2	-1	0	1	-3	-3	-1	1473868296569
-2	-1	1	-1	-2	-1	-2	-1	1473868296574
-2	0	-1	-1	-3	-2	-3	-1	1473868296571
0	-1	1	0	-2	-2	0	0	1473868296576
-4	-3	0	-3	2	-2	0	-2	1473868296617
2	-1	1	-1	-3	0	-2	-1	1473868296622
0	-2	-2	0	0	0	1	1	1473868296617
0	1	-1	-5	0	-2	-2	1	1473868296622
0	-1	-2	12	6	4	2	0	1473868296621
-2	-1	-1	-6	-1	-1	-2	-2	1473868296626
0	-2	-2	-2	-6	-3	-2	0	1473868296661
-3	-3	-3	-4	-3	-2	-1	-2	1473868296666
1	1	-1	1	-2	-2	-2	-1	1473868296662
-1	-2	0	3	0	0	-1	-1	1473868296667
-3	2	-1	-1	0	1	2	1	1473868296664
-3	0	0	-8	-4	-2	-1	1	1473868296669
-1	0	1	6	2	2	1	0	1473868296665
0	0	-2	-3	-1	-2	0	0	1473868296670
1	0	-2	2	1	-1	-1	-1	1473868296711
-2	1	2	-5	-5	-2	-2	-1	1473868296716
-1	-4	-2	-11	-5	-3	-2	-1	1473868296713
-3	-1	0	0	-1	-1	0	-1	1473868296718
0	-2	-2	0	-3	0	0	0	1473868296757
-1	-1	2	-1	-1	1	0	-2	1473868296762
-2	-2	-1	-1	-2	-1	-1	-3	1473868296757
-1	0	-1	2	0	1	0	1	1473868296762
1	1	-1	-8	-3	-3	-2	-1	1473868296757
-4	0	-1	-8	-4	-3	-1	-1	1473868296762
-1	-2	2	9	6	5	2	-1	1473868296761
-1	0	-4	-2	-1	-3	-2	-2	1473868296766
-1	0	-2	0	0	-1	-2	-1	1473868296807
-1	-1	0	0	0	0	-1	0	1473868296812
-2	-1	-2	-2	0	-4	-2	-1	1473868296807
-1	-2	3	-1	-4	-2	-2	-1	1473868296812
-1	-2	-6	-5	-1	-3	-1	-2	1473868296852
0	-1	-1	4	2	1	0	-2	1473868296857
-3	-2	7	-1	-2	-1	-2	-1	1473868296854
-1	-2	-1	2	2	1	3	1	1473868296859
0	-1	-3	0	2	5	-1	0	1473868296855
1	0	8	1	-2	-1	-1	0	1473868296860
0	0	-4	-2	0	0	-1	-2	1473868296856
-2	-5	-6	-5	-2	-2	-2	-1	1473868296861
-2	-4	-5	3	1	-1	1	1	1473868296948
-1	-2	-12	-5	-4	0	-1	-1	1473868296953
-2	0	1	-5	-4	-3	-2	0	1473868296951
0	1	-12	-1	0	1	1	0	1473868296956
-1	-2	19	-1	-1	-1	-1	-3	1473868296995
-2	0	2	0	0	-1	-2	0	1473868297000
-1	-1	20	3	-1	0	-1	-1	1473868296996
0	-2	5	-12	-3	-3	-2	-2	1473868297001
0	-2	-35	-5	-2	-2	-2	-1	1473868296998
-1	3	40	8	-3	-1	-2	-4	1473868297003
-2	1	17	7	6	-2	1	1	1473868297042
-3	-4	-39	-2	2	5	0	-1	1473868297047
-2	-4	-18	-6	0	-2	-1	-3	1473868297043
-3	-3	-2	1	-3	-2	-2	-2	1473868297048
-1	0	-1	-8	-3	-4	-3	-2	1473868297045
0	0	-5	-1	1	3	1	-1	1473868297050
-2	-2	6	3	3	4	0	-1	1473868297090
-1	-3	-3	-4	0	-1	-1	-2	1473868297095
-3	0	-4	0	-2	-2	-2	0	1473868297091
-1	-1	2	3	0	1	-1	0	1473868297096
-1	-1	-16	-4	0	0	0	-1	1473868297091
0	-1	-5	-2	-4	-2	-2	-3	1473868297096
-1	1	7	-8	-5	-1	0	-3	1473868297138
1	-4	-1	-4	0	-1	1	-1	1473868297143
-1	-1	-4	3	1	-1	0	-2	1473868297138
-1	-3	-2	-5	-1	-4	-1	0	1473868297143
1	-1	18	1	-2	-1	-1	-1	1473868297140
-1	-2	-7	2	1	-2	1	-1	1473868297145
-1	-1	3	-1	0	4	-2	0	1473868297141
-1	-1	-8	1	-1	0	0	1	1473868297146
-1	-2	3	-7	-5	-1	-2	-2	1473868297186
-1	-2	-3	2	1	1	0	-1	1473868297191
-2	-4	-2	2	1	-2	0	0	1473868297187
0	1	-7	-2	-2	-1	0	0	1473868297192
-2	0	8	3	2	-1	1	-1	1473868297233
0	-1	-20	0	-2	1	-2	-1	1473868297238
0	0	-17	-5	-4	-3	-2	0	1473868297233
0	0	16	6	6	1	-1	0	1473868297238
-1	-2	-8	-3	-2	-4	0	-1	1473868297236
-1	-1	-6	-4	-1	3	-2	0	1473868297241
-1	-2	-2	-2	-2	-2	-3	-2	1473868297237
-1	-2	3	-1	-3	-1	-1	-3	1473868297242
-2	0	-5	-2	-6	0	1	-1	1473868297281
-2	-2	-11	-2	-3	-2	-2	-1	1473868297286
-3	-2	14	0	-1	-2	-3	0	1473868297282
-1	-1	-1	-1	-3	-2	-1	-1	1473868297287
-1	0	5	2	3	0	0	0	1473868297283
-2	-2	-7	-5	-2	-3	-1	0	1473868297288
0	-1	0	3	1	1	-1	0	1473868297329
-2	-2	-6	-2	-4	-2	-1	-1	1473868297334
0	1	1	-2	-4	-1	-2	1	1473868297329
0	-2	-12	-3	-2	-2	-2	-1	1473868297334
-1	-2	4	2	3	1	0	-2	1473868297375
-2	0	2	-1	0	0	-1	-1	1473868297380
-1	-1	3	3	2	-2	0	-2	1473868297376
-1	0	-5	5	3	3	0	-1	1473868297381
-3	0	24	2	0	-2	-1	-2	1473868297378
0	-1	-40	-5	-3	-1	-1	-1	1473868297383
-1	-1	0	-8	-4	0	-1	-1	1473868297379
-1	0	12	-3	-2	-3	-3	-4	1473868297384
-1	-3	8	-1	-2	-2	0	0	1473868297423
0	-3	-3	0	-3	-1	-2	-2	1473868297428
-1	-1	-13	3	3	0	-4	-1	1473868297425
-2	0	16	-2	1	0	0	-1	1473868297430
-2	-1	6	-4	-4	1	-2	-1	1473868297518
-1	-1	3	-1	0	-1	-3	-2	1473868297523
0	0	-11	-2	0	-3	-1	-1	1473868297519
0	0	9	3	2	0	-1	-2	1473868297524
1	-1	6	-5	-1	0	-1	0	1473868297519
-2	-2	-8	3	0	-1	-1	0	1473868297524
-2	-2	14	4	-2	-1	-1	-1	1473868297564
-2	-3	-55	-5	-1	-3	-1	-2	1473868297569
-1	0	-11	-3	-4	-2	0	0	1473868297566
-1	-1	23	4	0	0	-1	-3	1473868297571
1	0	4	5	1	-2	-1	-2	1473868297566
-2	-4	-43	-7	-2	0	-2	0	1473868297571
-1	-1	0	2	0	1	0	-3	1473868297659
0	-1	7	-5	-4	-1	-1	1	1473868297664
-1	-2	2	3	1	1	-1	-1	1473868297659
0	0	3	2	-2	-1	-3	-2	1473868297664
-1	0	-3	-3	-7	-5	0	0	1473868297661
0	0	7	0	5	-2	7	-1	1473868297666
-1	-1	-6	-1	1	5	-1	1	1473868297663
-1	0	2	1	-1	-1	-1	-1	1473868297668
0	-1	2	0	-2	-3	0	-2	1473868297708
0	-1	11	0	0	1	1	0	1473868297713
-1	-1	2	8	1	-2	10	-1	1473868297708
0	-1	-4	3	3	5	-3	0	1473868297713
-2	-2	-3	-3	-3	-3	-2	-3	1473868297710
-2	-1	2	1	1	0	0	-1	1473868297715
-1	-1	0	2	0	-2	4	-2	1473868297757
-2	-1	8	4	-2	1	-18	-1	1473868297762
-2	-1	7	0	-1	-5	-7	-1	1473868297758
0	0	-4	-2	-1	1	6	0	1473868297763
-2	0	10	-5	-1	-5	-10	-1	1473868297759
-1	-3	-32	-3	3	0	12	0	1473868297764
-1	2	12	-2	1	4	-1	2	1473868297805
-1	-1	-1	10	1	6	6	-3	1473868297810
0	-3	-8	-1	-4	-14	-3	-2	1473868297805
0	0	3	0	1	-2	5	0	1473868297810
-2	-2	12	0	-1	2	-4	-3	1473868297851
1	0	-1	-3	0	4	4	2	1473868297856
-1	-1	-3	-3	-2	7	-2	3	1473868297852
-1	-1	6	-2	-3	-9	2	-2	1473868297857
-2	-3	-14	10	0	8	-5	1	1473868297852
-1	1	11	-6	0	-5	-7	-6	1473868297857
0	-1	-1	-10	-4	3	1	11	1473868297898
-1	-5	-22	-6	-1	1	-1	-5	1473868297903
-2	-2	-21	-2	-2	3	3	-1	1473868297898
0	2	24	10	4	3	9	1	1473868297903
-1	0	11	-4	2	-11	-24	-7	1473868297901
-1	-3	-53	-11	-3	-2	-5	0	1473868297906
-1	0	-2	3	0	4	-2	-5	1473868297901
-3	-3	-13	-6	-4	-2	4	4	1473868297906
-4	-3	-12	-4	-4	-41	12	-7	1473868297994
-10	0	17	4	1	10	-30	-2	1473868297999
19	3	-39	-12	-2	42	36	15	1473868297995
6	-3	23	-5	-1	6	6	12	1473868298000
9	-4	-9	5	2	-22	16	-9	1473868298040
-12	-2	-55	-10	-1	17	-34	5	1473868298045
-3	1	13	-55	-7	4	-4	2	1473868298041
6	-5	-15	1	0	-14	9	-11	1473868298046
11	-1	-35	6	-2	3	-3	0	1473868298041
0	-3	20	-18	-4	-15	-24	-3	1473868298046
6	-1	-6	22	17	12	-7	-3	1473868298043
-5	5	66	2	-11	-39	2	-3	1473868298048
-7	-8	-63	-36	-5	29	10	4	1473868298087
9	6	49	33	6	8	0	-9	1473868298092
-26	-5	-40	26	-1	15	10	-13	1473868298087
27	-3	26	49	6	0	-15	-8	1473868298092
-17	-11	-112	-8	4	-25	-27	14	1473868298089
-39	21	57	-91	-22	-15	4	-12	1473868298094
-8	-8	8	-9	-14	-1	-41	-10	1473868298136
-1	-6	-8	17	1	1	16	1	1473868298141
-3	-1	32	5	8	-7	-19	-1	1473868298137
18	2	8	42	6	30	9	5	1473868298142
9	-1	16	-20	-6	12	7	8	1473868298137
1	3	-26	55	16	21	11	6	1473868298142
-10	8	94	8	2	-7	-6	-6	1473868298138
2	-10	-101	-28	-14	-24	-14	-4	1473868298143
-50	6	36	-30	-7	65	11	-9	1473868298185
4	-6	15	15	17	12	33	10	1473868298190
5	5	7	34	14	5	-14	-2	1473868298185
9	4	53	-13	-12	0	3	3	1473868298190
-5	-11	-72	8	1	-33	-17	-5	1473868298185
8	37	115	59	-1	-17	-25	-3	1473868298190
7	36	31	0	-6	-10	-2	3	1473868298231
-17	-2	-10	41	-9	-2	0	-10	1473868298236
9	5	23	-62	-12	-11	5	3	1473868298231
-11	-34	-64	6	5	-2	4	-4	1473868298236
16	9	-23	-15	-28	-18	-7	4	1473868298233
-35	8	43	9	34	7	-5	-18	1473868298238
5	7	-23	6	8	28	12	-1	1473868298278
1	0	37	17	5	-7	-13	0	1473868298283
8	9	-5	-9	-11	-34	-22	-2	1473868298278
-2	-22	-38	-3	-7	5	20	0	1473868298283
-2	0	-32	-56	25	23	1	1	1473868298281
1	4	38	57	6	3	-3	-1	1473868298286
5	36	38	-61	-33	-24	-7	-4	1473868298281
-4	-61	-55	-8	4	-28	-21	-5	1473868298286
35	-13	-12	0	-9	-17	-29	-12	1473868298326
-14	-6	27	-49	-28	-6	31	-17	1473868298331
-21	16	6	14	-25	-9	0	6	1473868298326
4	3	11	-4	32	26	4	7	1473868298331
-1	-6	-51	42	36	23	12	0	1473868298372
-2	0	16	-36	-30	-20	-30	0	1473868298377
-15	-4	-23	26	53	5	-12	17	1473868298373
8	4	-56	-19	13	16	10	-2	1473868298378
-5	-5	29	-23	-14	-8	0	-4	1473868298373
2	-1	41	29	-44	-13	-18	-3	1473868298378
-6	11	18	41	-1	-24	2	-6	1473868298377
0	-5	-49	-89	22	20	6	6	1473868298382
9	5	28	64	42	31	10	0	1473868298421
-5	-3	-39	-53	-14	-8	-7	-4	1473868298426
6	5	10	37	17	-5	-3	-1	1473868298422
2	13	39	-16	-15	0	5	4	1473868298427
-14	-8	32	-3	7	-1	4	-3	1473868298423
5	6	10	45	23	13	2	6	1473868298428
8	11	-52	-30	7	5	2	1	1473868298423
-18	-20	-15	-25	-18	-15	-10	-10	1473868298428
-6	-7	-15	-15	-12	1	-1	-4	1473868298467
-3	1	54	2	-7	-8	-6	2	1473868298472
-4	0	-32	11	-6	-4	-1	-2	1473868298469
10	1	3	-14	13	3	-1	0	1473868298474
3	7	103	18	0	4	4	-1	1473868298514
-6	-2	-67	-9	-11	-8	-5	-2	1473868298519
-3	-2	1	-14	-7	-4	-4	0	1473868298516
8	13	9	12	21	7	3	5	1473868298521
-6	-5	-26	-16	-4	5	4	-3	1473868298517
-1	-14	-19	22	-9	-6	-6	0	1473868298522
1	-1	3	-9	-1	-2	-2	-2	1473868298517
-4	-1	-25	14	1	-2	0	2	1473868298522
2	4	59	20	3	1	-1	0	1473868298562
-2	-4	-7	-9	-6	-5	0	-2	1473868298567
0	2	-11	-28	-2	-1	0	-2	1473868298563
0	2	41	22	-2	-2	-2	1	1473868298568
-5	-3	-13	-18	-7	-3	-1	-2	1473868298565
2	4	15	22	15	6	3	3	1473868298570
1	4	-2	-1	3	0	-2	-1	1473868298611
-2	-8	4	-2	-7	-3	-1	-1	1473868298616
-1	-2	-47	2	5	0	-1	-1	1473868298611
-3	-4	57	-10	-4	-2	-1	-3	1473868298616
3	3	8	17	3	2	2	-1	1473868298613
-1	-2	12	3	-2	-3	-2	0	1473868298618
-3	-8	-23	-23	2	0	-1	-2	1473868298657
-2	2	-19	-5	-2	-1	-1	-1	1473868298662
0	2	64	-3	-4	-4	-3	-1	1473868298657
1	2	-1	13	5	2	1	-1	1473868298662
0	2	-26	15	9	4	2	0	1473868298660
-3	-9	15	-6	-3	-1	-2	-1	1473868298665
-1	4	38	16	-1	-1	-1	-2	1473868298661
2	0	3	-31	-5	-1	-2	1	1473868298666
-1	-3	11	9	1	-1	1	0	1473868298706
-1	0	8	-5	-3	-3	-2	-2	1473868298711
-1	-2	-9	10	-1	-2	0	0	1473868298707
-1	0	-3	0	-1	-1	-2	0	1473868298712
-1	-1	17	0	0	-1	-2	0	1473868298752
-2	1	-42	-29	-3	-2	-1	-2	1473868298757
-1	-5	-12	-7	-5	-3	-1	-1	1473868298755
1	2	20	4	0	0	0	-1	1473868298760
-1	-1	0	1	1	0	-1	-1	1473868298755
-2	-1	-18	-2	-1	-2	-1	0	1473868298760
-2	-3	-1	-12	-4	-2	-3	-1	1473868298755
0	-1	-5	10	2	-2	-1	-1	1473868298760
-1	-2	-9	-5	-1	0	1	0	1473868298799
-2	0	12	-19	-6	-2	-4	-1	1473868298804
-1	-1	-15	6	-3	-1	-1	-2	1473868298802
0	-4	26	17	4	1	1	0	1473868298807
-1	3	47	-2	1	0	1	-1	1473868298802
0	-5	-69	-5	-4	0	-2	1	1473868298807
-1	0	7	-3	0	-2	0	-1	1473868298804
1	0	-5	4	-2	-1	1	-2	1473868298809
-1	-4	-27	1	-2	-1	0	-2	1473868298848
0	0	12	2	-1	-1	0	-1	1473868298853
-1	-2	3	-24	-2	-2	-1	-1	1473868298848
-2	-2	-2	10	3	0	-1	-2	1473868298853
-1	-2	-6	0	0	0	-2	-1	1473868298896
-1	0	2	1	-3	-1	-2	-2	1473868298901
-2	-1	-9	1	-1	0	-2	-2	1473868298897
-1	1	12	2	0	0	0	-1	1473868298902
-1	-2	14	4	-1	1	-2	-2	1473868298897
-3	-4	7	-19	-3	-3	-3	-1	1473868298902
-1	-1	-47	-7	-2	0	-1	-2	1473868298898
-2	0	24	7	-1	-3	0	-1	1473868298903
-2	-2	2	2	-1	-1	-1	0	1473868298941
1	-2	-17	4	0	0	0	-1	1473868298946
-2	-3	-21	-12	-1	-1	-1	0	1473868298945
-2	-1	0	11	-1	-1	-2	-2	1473868298950
1	0	13	-14	1	-1	-1	1	1473868298945
0	-1	-5	0	-2	-2	-2	-1	1473868298950
-2	0	-4	2	-2	-1	-2	-1	1473868298946
1	-1	-3	4	1	0	0	0	1473868298951
-1	0	-2	7	1	1	0	0	1473868298992
-1	1	4	-6	-1	0	-1	0	1473868298997
-1	-2	-7	4	-3	-2	0	1	1473868298992
-1	2	0	0	1	-1	-1	-2	1473868298997
-3	-4	8	-5	-2	-3	-2	-1	1473868298994
-1	-1	-4	-1	-1	0	-2	-1	1473868298999
-1	-1	-4	8	4	2	1	-1	1473868299038
-1	1	-7	1	0	1	0	1	1473868299043
0	0	-3	-1	-1	-2	-2	-2	1473868299039
0	0	17	-3	-1	0	-1	-1	1473868299044
-3	-2	-7	5	-1	0	0	-1	1473868299039
-2	-2	0	4	0	-3	0	1	1473868299044
-1	0	-2	-6	-3	-1	-2	0	1473868299042
-1	-1	-3	0	0	-2	-1	-2	1473868299047
-1	-4	7	5	-1	-2	0	-2	1473868299088
0	-2	-8	-5	-3	-3	-2	1	1473868299093
-1	-1	2	-1	-1	-1	0	0	1473868299089
-1	-2	1	-1	0	0	0	-1	1473868299094
0	0	-6	-2	-1	-2	-1	0	1473868299091
-1	-2	-2	-3	-4	-1	1	-1	1473868299096
0	-1	-3	-1	-3	-3	-2	-2	1473868299133
0	-3	1	-1	0	-2	-1	-1	1473868299138
-2	-1	-1	-1	-1	-2	0	1	1473868299134
0	-3	-7	0	-1	-1	0	0	1473868299139
-2	-1	0	-1	-2	0	-1	-1	1473868299135
0	-1	0	5	-1	0	-3	-1	1473868299140
-1	0	-7	-15	-3	-1	1	-2	1473868299179
0	-3	14	-1	0	-2	0	-1	1473868299184
0	-1	7	7	-2	-1	-2	0	1473868299179
-1	-1	-4	-1	-1	1	-3	-2	1473868299184
0	-1	-4	-2	-2	0	-1	0	1473868299183
-1	-1	4	-2	-1	-2	-1	-1	1473868299188
-1	0	-4	1	-1	-1	-1	-1	1473868299183
-1	-1	1	-1	-1	-1	0	-1	1473868299188
-1	-1	2	-1	-1	0	0	0	1473868299229
-1	-1	-1	-3	-3	-3	-3	0	1473868299234
-2	-4	-1	-2	-2	-1	-1	-2	1473868299229
-1	0	-7	5	2	-2	0	-1	1473868299234
0	-1	3	1	0	-2	-2	0	1473868299275
0	-1	-2	-3	0	0	-1	0	1473868299280
-1	-1	1	-2	-2	-1	0	-2	1473868299277
-1	-1	0	0	1	0	-1	-2	1473868299282
0	-1	1	0	-1	-1	-1	-2	1473868299277
0	-2	0	-2	-2	-2	-2	0	1473868299282
-2	-2	-4	0	0	-4	-2	-2	1473868299279
0	0	2	3	0	-1	0	-1	1473868299284
-1	0	-8	-2	-1	-2	0	-1	1473868299323
-1	-2	3	-6	-2	2	-1	-1	1473868299328
1	-1	1	0	-1	0	-2	-1	1473868299326
-2	0	-5	-3	-3	-1	-2	-1	1473868299331
0	-2	1	-2	-1	1	0	0	1473868299327
-1	-2	-5	-2	1	1	-1	-1	1473868299332
-1	-1	1	1	0	-1	-1	-1	1473868299327
0	-1	2	-1	-1	-3	0	-1	1473868299332
-1	1	4	-2	-1	-1	0	-1	1473868299371
-1	-1	-6	-3	-2	0	1	1	1473868299376
-1	-1	3	-2	-3	-2	-2	-2	1473868299371
0	-3	-2	-2	0	0	-2	-2	1473868299376
-2	-1	-6	-3	-2	0	-1	-1	1473868299373
0	-2	3	2	-3	-1	-2	-1	1473868299378
0	-1	2	1	-1	-1	2	0	1473868299422
-3	0	0	-1	-1	0	0	-3	1473868299427
1	-2	-2	-1	-3	-1	-1	-1	1473868299422
-1	-1	-3	-1	-1	-1	0	-2	1473868299427
0	-1	1	1	1	1	1	0	1473868299464
0	-1	3	0	-1	-1	-1	1	1473868299469
-2	-2	-1	-1	-2	-1	-2	0	1473868299466
0	-1	0	1	-1	-1	-1	-2	1473868299471
-1	-2	0	0	-2	-2	0	0	1473868299466
-2	-2	-1	-1	-1	0	-3	-1	1473868299471
0	-1	0	-1	0	0	0	0	1473868299512
-1	0	-4	-1	-1	-1	-2	0	1473868299517
-2	-1	-2	-1	0	0	-1	-1	1473868299512
-2	0	-4	-2	-2	0	-1	0	1473868299517
0	-1	-1	-2	-1	-3	-2	-1	1473868299514
0	0	-2	2	-2	-2	-1	-1	1473868299519
-2	0	-2	-2	-1	-1	-1	-3	1473868299516
0	-1	-4	-1	0	0	1	0	1473868299521
0	0	2	0	-2	0	0	0	1473868299561
-1	-1	4	-1	-1	-1	-1	0	1473868299566
0	-1	-4	-1	0	0	-2	-1	1473868299563
-2	1	3	0	0	-3	-1	0	1473868299568
-1	-3	-4	-1	-1	0	0	0	1473868299606
-1	0	3	0	1	-1	0	1	1473868299611
-2	0	0	-2	-2	-2	0	-1	1473868299609
-1	0	-7	-1	-1	0	-1	0	1473868299614
-1	-1	0	-2	-1	-2	0	-1	1473868299609
0	-2	2	-2	-1	-3	-2	-1	1473868299614
-2	-1	-5	-3	-1	-1	-1	-3	1473868299655
-1	-1	-1	-1	-2	-1	1	-1	1473868299660
-1	-3	-2	0	-1	0	-1	-1	1473868299655
0	-2	2	0	-2	-1	-1	-1	1473868299660
-1	-1	-2	-2	-1	0	-2	-1	1473868299657
0	0	2	0	-1	0	0	-2	1473868299662
0	0	-1	-1	-1	-1	0	-2	1473868299657
-2	0	-1	-2	-1	-1	-1	-2	1473868299662
-1	-2	-2	-1	-1	-2	-3	-2	1473868299702
0	-2	-2	-3	-3	0	-2	-2	1473868299707
-1	0	4	1	0	0	-2	0	1473868299704
0	0	0	-2	1	-1	1	-1	1473868299709
-2	-1	-2	-2	-1	-3	-1	-1	1473868299750
-1	0	0	1	-2	-1	-3	-1	1473868299755
-1	-1	0	0	-1	-3	-3	-1	1473868299751
-1	-1	-3	-2	1	-1	-3	1	1473868299756
-1	-2	0	0	0	1	1	-1	1473868299753
-2	0	-3	0	-1	-1	-2	-1	1473868299758
-1	-1	-2	-2	-1	-1	0	-1	1473868299754
0	-2	0	-1	-2	-1	-1	0	1473868299759
-2	1	0	0	-1	1	-1	1	1473868299798
-1	1	-2	0	-2	-1	0	0	1473868299803
-1	-1	1	-1	-1	-1	0	-1	1473868299799
0	-1	0	1	1	-1	0	-1	1473868299804
-1	-2	0	-1	-1	-2	0	-2	1473868299801
-1	0	-3	0	-1	-1	0	-2	1473868299806
-2	-2	-1	-1	-1	-2	0	-1	1473868299845
-1	0	-2	2	-2	1	-2	-1	1473868299850
-2	-1	0	-1	0	-2	0	-2	1473868299845
-1	-2	-1	-1	-3	0	0	0	1473868299850
0	-1	-1	-3	-3	-1	-1	-2	1473868299892
0	-1	0	1	-1	-1	0	-1	1473868299897
-1	0	0	-1	-2	-1	-1	-2	1473868299893
0	-1	-1	0	0	-1	0	0	1473868299898
1	-1	-1	-1	-1	-2	-3	-2	1473868299895
-2	-2	-2	-2	0	-2	0	0	1473868299900
-2	-1	0	0	0	0	1	-1	1473868299896
-2	-1	-2	-1	-2	0	-1	-1	1473868299901
-2	-3	-1	0	1	2	-1	2	1473868299942
1	-2	-2	-2	-1	-1	-1	-1	1473868299947
0	-1	-1	-2	0	-1	-2	-1	1473868299942
-1	1	-1	-1	0	1	-1	-1	1473868299947
-1	-1	-1	-1	0	0	-1	0	1473868299987
-1	-1	-1	-1	-1	-1	-1	1	1473868299992
0	-1	0	-2	-2	-1	-1	-2	1473868300035
-2	-1	0	0	0	-1	-1	-1	1473868300040
0	-1	-1	0	-1	-2	-1	-1	1473868300036
1	-1	-1	0	-1	-1	-1	0	1473868300041
0	-1	-2	-1	1	-1	1	-2	1473868300036
-1	-1	-4	-2	0	-1	0	0	1473868300041
0	1	-1	0	-1	-1	0	-1	1473868300039
0	-1	0	-1	-1	-1	-1	0	1473868300044
-1	-1	-2	-1	-2	-2	-1	-1	1473868300082
0	0	0	-1	-2	0	0	0	1473868300087
-2	0	0	-1	-4	-1	-1	-1	1473868300083
1	0	-1	-1	-2	-1	-1	-2	1473868300088
-3	-1	-1	-1	-1	0	-1	-2	1473868300083
-2	0	0	-2	-2	0	1	-2	1473868300088
-1	0	-1	0	-2	-1	-1	0	1473868300129
0	0	0	-1	-1	-3	0	0	1473868300134
-1	-2	9	-1	1	-2	0	-2	1473868300130
-1	-1	0	0	-1	-1	0	-3	1473868300135
1	-1	-3	-2	0	0	-1	-1	1473868300131
-1	-2	-2	-2	-3	-2	-2	-2	1473868300136
-2	-3	-5	-1	-3	-2	-1	0	1473868300132
0	-2	-1	0	-4	-1	-1	0	1473868300137
-1	-1	-1	-2	-2	-3	-1	-2	1473868300178
-1	-2	-4	-1	1	-1	-2	1	1473868300183
1	0	-11	0	-1	0	0	-1	1473868300179
